DSB,ATM_active,ATR_active,CHK1_active,CHK2_active,p53_active,p21_active,PARP_active,RAD51_focus,CellCycleArrest,ApoptosisSignal,SurvivalSignal,Time
0.0,0.0,5.0,5.0,2.0,2.0,0.0,3.0,0.0,0.0,0.0,0.9,0.0
0.06796358278172929,0.012215365935000447,4.828870053545172,4.997979778359285,1.861361660221652,2.527371694590187,0.42839818296949517,2.934250386704913,0.0,0.0,0.00034725998354628244,0.8989218622053328,0.24120603015075376
0.13210450467083612,0.04717451489416459,4.6763333344061975,4.986978488861264,1.7379694754301716,2.966303903010173,0.927245259334341,2.881082474992537,0.0,0.0,0.000801151097605874,0.8978675963965794,0.4824120603015075
0.1926377739831897,0.10249470529126667,4.5410253859872745,4.9685030910981585,1.633767036009715,3.335595435389509,1.4784090484794483,2.839576884589089,0.0,0.0,0.001350013165523661,0.8968504375125496,0.7236180904522613
0.24976630575341746,0.17597918498660842,4.421669820028021,4.943902401882399,1.5518903768272354,3.650494684037834,2.0678046110976727,2.8088709919280817,0.0,0.0,0.00198425761273566,0.8958826824450826,0.964824120603015
0.3036816019083445,0.26560428283148146,4.317072960895492,4.914380701116835,1.494766087046774,3.9233354624448364,2.6845971550118244,2.7881556176669204,0.0,0.0,0.0026959726989751946,0.8949756850031367,1.2060301507537687
0.35456439320794186,0.3695073412125573,4.226118805256499,4.881010288200386,1.4641996708519391,4.164060863621732,3.3205512268237944,2.776671903285787,0.0,0.0,0.003478597228880881,0.8941398452186337,1.4472361809045227
0.40258524508455,0.4859754370786032,4.147764278997748,4.844743064413124,1.4614550272019429,4.3806547541147,3.969500177576343,2.7737083661384623,0.0,0.0,0.004326650327390963,0.8933845962885167,1.6884422110552764
0.44790512938700133,0.613434842450357,4.081034774381929,4.806421211097678,1.487325840327454,4.579497060173529,4.626914498283542,2.778598122969595,0.0,0.0,0.005235507462454088,0.8927183918562742,1.92964824120603
0.490675963995535,0.7504411768465454,4.025019950809472,4.766787030553814,1.5421996235394586,4.765656331743405,5.289551183190232,2.7907162721200485,0.0,0.0,0.006201214786360914,0.8921486957978761,2.170854271356784
0.5310411220566665,0.895670209265572,3.978869784379124,4.726492009134179,1.626115071487938,4.943130472710928,5.955169728794175,2.809477425717307,0.0,0.0,0.0072203355830674125,0.8916819762060831,2.4120603015075375
0.5691359125733421,1.0479092681233453,3.9417908515948783,4.686105160167298,1.7388133411864146,5.115044817850484,6.622302655616874,2.8343333832218267,0.0,0.0,0.0082898236631704,0.8913237048363111,2.6532663316582914
0.6050880340387494,1.2060492190786176,3.9130428329962506,4.646120701424883,1.8797838368912965,5.28381511299431,7.2900706056077755,2.864770937936794,0.0,0.0,0.009406919512198818,0.891078362865792,2.8944723618090453
0.6390180023878164,1.3690769798207167,3.891935225908138,4.606965110324648,2.0483049630689942,5.45128129902447,7.958034243167558,2.9003098101385785,0.0,0.0,0.010569065942950064,0.8909494535625598,3.135678391959799
0.6710395551109348,1.5360685293633867,3.8778242508933802,4.569003612581285,2.243480395126778,5.618817668538227,8.62607568130674,2.9405006976749513,0.0,0.0,0.011773840087131301,0.8909395219860372,3.3768844221105527
0.7012600324259225,1.7061823896435098,3.870109944255406,4.5325461357492625,2.464271206771831,5.787423079575918,9.294304589606567,2.9849234395610624,0.0,0.0,0.013018899671467266,0.8910501818066526,3.618090452261306
0.7297807370905036,1.878653543217572,3.8682334233810876,4.497852774655088,2.7095243063330208,5.957795057899059,9.962984003466062,3.0331852847234564,0.0,0.0,0.014301941283553821,0.8912821489073632,3.85929648241206
0.7566972740896314,2.052787758594416,3.8716743145890553,4.465138805836863,2.9779975392833102,6.130390582778726,10.632472209957436,3.0849192597621555,0.0,0.0,0.015620668905309106,0.891635281299166,4.100502512562814
0.7820998709830761,2.227956304116416,3.8799483368042735,4.4345792772505614,3.268381724977941,6.305475693103078,11.303177925406303,3.1397826318159283,0.0,0.0,0.016972771354545765,0.8921086248703184,4.341708542713568
0.8060736803823558,2.403591017694153,3.892605028877803,4.406313214033866,3.5793199936245172,6.483166152625317,11.97552590319305,3.197455459252891,0.0,0.0,0.0183559070735478,0.8927004641353457,4.582914572864321
0.8286990655189332,2.579179710487158,3.9092256125155025,4.380447468253648,3.9094246795950993,6.66346066628506,12.649931064998398,3.2576392254099047,0.0,0.0,0.01976769516281221,0.8934083772097657,4.824120603015075
0.8500518695072609,2.7542618898678035,3.929420985674391,4.357060232577768,4.257291967405095,6.846267827625174,13.326779634225113,3.32005555236997,0.0,0.0,0.021205711736434874,0.8942292942658854,5.065326633165829
0.8702036695272722,2.9284247748687657,3.952829836312324,4.336204250430596,4.621514567312303,7.031428074838137,14.006415673754008,3.3844449887157726,0.0,0.0,0.022667490517637424,0.8951595585074966,5.306532663316583
0.8892220169157191,3.1012995825220635,3.9791168683181932,4.317909748646819,5.000692637631668,7.218731547370395,14.689131925478247,3.4505658663590437,0.0,0.0,0.024150526850250334,0.8961949887900897,5.547738693467337
0.9071706636294234,3.272558073936595,4.0079711356784715,4.302187107453617,5.393443092544774,7.40793245739356,15.375164174894135,3.5181932241337184,0.0,0.0,0.025652284501473867,0.8973309431171078,5.788944723618091
0.924109775744921,3.441909345052178,4.039104479328975,4.289029286654521,5.798407459262282,7.598760607694052,16.06468835831346,3.5871177948542163,0.0,0.0,0.027170204589558777,0.8985623822011016,6.030150753768844
0.9400961350820239,3.6090968390738714,4.072250057781629,4.278414034515052,6.214258488521384,7.790930678555841,16.757819678770844,3.6571450504621215,0.0,0.0,0.02870171595218989,0.8998839322504921,6.271356783919598
0.9551833300086723,3.7738955592621317,4.10716096299002,4.270305902590437,6.63970568127378,7.984149687216027,17.45461328318957,3.728094300058787,0.0,0.0,0.030244246506163232,0.9012899464665471,6.5125628140703515
0.9694219348320294,3.93610949114362,4.1436089259048,4.264658060532762,7.073499734043342,8.17812276253451,18.155066268627845,3.799797843690636,0.0,0.0,0.03179523527469523,0.9027745645130186,6.7537688442211055
0.9828596790041834,4.095569209262643,4.181383101780746,4.261413938003077,7.5144360918819055,8.372557671303145,18.859120542537486,3.8721001758365627,0.0,0.0,0.03335214458720081,0.9043317694139021,6.994974874371859
0.9955416075106471,4.252129641946929,4.2202889243111645,4.2605087210415755,7.961357780888349,8.567168414749483,19.566666227755945,3.944857231885364,0.0,0.0,0.03491247213152145,0.9059554416424749,7.236180904522612
1.0075102317684208,4.405668004903408,4.260147033685149,4.261870694640991,8.413157499943704,8.761677908039097,20.277545547571076,4.017935680855582,0.0,0.0,0.0364737626583955,0.9076394098025422,7.477386934673366
1.0188056720653837,4.556081883407388,4.300792270292634,4.265422452577322,8.868779104976047,8.955819976095029,20.991556968622067,4.0912122592867695,0.0,0.0,0.0380336190975,0.9093774977300884,7.71859296482412
1.0294657921933803,4.703287450119559,4.3420727288229735,4.271081988179144,9.32721857380489,9.149340812532385,21.708459463152323,4.164573143092217,0.0,0.0,0.03958971293260258,0.9111635679073117,7.959798994974874
1.0395263262012517,4.8472178183190495,4.383848873134199,4.278763668264484,9.787524485645795,9.341999971183261,22.427976799659838,4.237913357695886,0.0,0.0,0.04113979365408188,0.9129915608012461,8.201005025125628
1.0490209980118392,4.98782151612527,4.42599270593906,4.28837910490501,10.248798102209228,9.533571003308317,23.149801775860563,4.3111362227978836,0.0,0.0,0.04268169720971165,0.9148555301768276,8.442211055276381
1.0579816350075228,5.1250610619903405,4.468386984690558,4.299837942988383,10.71019313583882,9.723841831535978,23.87360036009541,4.384152826383038,0.0,0.0,0.0442133535285437,0.9167496748558408,8.683417085427136
1.0664382745275147,5.258911658101614,4.510924491613988,4.313048551226651,11.170915176300324,9.91261485454713,24.599015677713872,4.456881533067933,0.0,0.0,0.04573279286985291,0.9186683661382594,8.924623115577889
1.0744192643143664,5.389359982817517,4.553507349741489,4.327918634221412,11.630220863730681,10.099706872766749,25.325671806620683,4.529247521717988,0.0,0.0,0.047238151068259196,0.9206061713338756,9.165829145728642
1.0819513575863697,5.516403069758007,4.5960463796250535,4.34435577716213,12.087416864803982,10.284948887271025,26.053177368350052,4.601182349025701,0.0,0.0,0.0487276737429074,0.9225578737449419,9.407035175879397
1.0890598026665934,5.640047273759614,4.638460497124377,4.362267924151293,12.54185866809747,10.46818578654295,26.78112889628075,4.672623539358821,0.0,0.0,0.05019971944104739,0.924518489042855,9.64824120603015
1.095768427954019,5.760307310342488,4.680676146226417,4.381563801403147,12.992949241199119,10.649275952074094,27.509113998820474,4.743514197064062,0.0,0.0,0.051652761862505885,0.9264832785683201,9.889447236180905
1.1020997217588384,5.8772053753093365,4.722626770360313,4.402153281545126,13.440137554010825,10.828090791856173,28.23671427945782,4.813802643503851,0.0,0.0,0.05308539106321137,0.9284477592539869,10.130653266331658
1.1080749074571443,5.9907703361744415,4.764252318623436,4.423947696661628,13.882917003539907,11.004514227834655,28.96350801710495,4.8834420765982545,0.0,0.0,0.054496313731092816,0.9304077105067335,10.37185929648241
1.113714014580875,6.10103698481188,4.805498782156277,4.446860109126094,14.32082377473291,11.178442158805144,29.6890726258747,4.952390249875644,0.0,0.0,0.05588435267563289,0.9323591785260003,10.613065326633166
1.119035946060014,6.208045347292815,4.846317758942838,4.470805543942507,14.753435153774737,11.349781906979924,30.412986902538183,5.020609169966258,0.0,0.0,0.057248445602977704,0.9342984782902408,10.854271356783919
1.1240585414522553,6.31184005272255,4.886666048156549,4.495701182149713,15.180367802025426,11.51845165218509,31.13483305130816,5.088064813307197,0.0,0.0,0.0585876431806765,0.9362221932158323,11.095477386934673
1.1287986372013994,6.412469745084435,4.926505266281061,4.521466526687086,15.601276012017907,11.684379863143937,31.854198540604735,5.1547268570509,0.0,0.0,0.05990110660937225,0.9381271731922595,11.336683417085426
1.133272122850285,6.509986553096114,4.965801492795726,4.54802353179229,16.015849947877328,11.84750472962488,32.570677728777085,5.220568429294036,0.0,0.0,0.061188104550948884,0.9400105304907576,11.577889447236181
1.1374939941625692,6.604445603240873,5.004524938274481,4.575296706688532,16.42381389204249,12.007773604361764,33.2838733100804,5.285565874030024,0.0,0.0,0.06244800962517602,0.9418696342204685,11.819095477386934
1.1414784033575158,6.695904572418867,5.0426496333070325,4.603213196535516,16.824924507977208,12.16514245773633,33.99339759368592,5.349698529827727,0.0,0.0,0.06368029455084508,0.9437021035591315,12.060301507537687
1.145238706614018,6.7844232775090445,5.080153137024541,4.631702842872815,17.218969125516956,12.319575346769199,34.698873626541335,5.412948521472537,0.0,0.0,0.06488452799509814,0.9455057999490684,12.301507537688442
1.1487875088500366,6.870063301280274,5.117016265107272,4.660698224430864,17.6057640548142,12.47104390011466,35.3999361622389,5.475300564522196,0.0,0.0,0.06606037017113164,0.94727881837137,12.542713567839195
1.1521367059518877,6.952887651784754,5.153222835938663,4.690134680503961,17.985152933926674,12.619526820298058,36.096232487328486,5.53674178192973,0.0,0.0,0.06720756824008015,0.9490194778657541,12.78391959798995
1.1552975247047192,7.03296045124358,5.188759433004509,4.719950319803347,18.35700511551489,12.765009404415204,36.78742312114163,5.597261531517762,0.0,0.0,0.06832595159241135,0.9507263115267564,13.025125628140703
1.1582805610559894,7.110346646039289,5.2236151790252485,4.750086019248618,18.721214085095855,12.907483078994572,37.47318242529827,5.65685124131025,0.0,0.0,0.06941542706035998,0.9523980561676354,13.266331658291456
1.1610958145488983,7.185111765070496,5.257781537024111,4.780485399870402,19.077695953423763,13.046944967977952,38.15319900610674,5.715504262912179,0.0,0.0,0.07047597398477805,0.9540336412582164,13.507537688442211
1.1637527221887387,7.257321683415461,5.291252115073137,4.811094802446596,19.426387981404975,13.183397471414258,38.82717609478977,5.7732157274867,0.0,0.0,0.07150763939985093,0.9556321781317054,13.748743718592964
1.1662601901877345,7.327042411635634,5.324022485761149,4.841863252324237,19.767247157884587,13.316847864852502,39.49483182028151,5.829982411680221,0.0,0.0,0.07251053322788205,0.957192949034434,13.989949748743719
1.1686266237869516,7.394339907621579,5.35609001888576,4.872742415581304,20.100248832804127,13.447307919439003,40.15589938830891,5.885802612534644,0.0,0.0,0.07348482353673812,0.9587153961795044,14.231155778894472
1.1708599552857244,7.459279908799518,5.387453726357691,4.903686548152744,20.425385408305004,13.574793542659574,40.81012717728934,5.940676030748098,0.0,0.0,0.07443073190179204,0.9601991109278225,14.472361809045225
1.1729676714697472,7.52192777093242,5.418114111159832,4.934652442962313,20.742665051375617,13.699324426392419,41.45727880801563,5.99460365672558,0.0,0.0,0.07534852882150513,0.9616438230619655,14.71356783919598
1.174956837676738,7.582348344584667,5.448073039117863,4.96559936465457,21.05211051946634,13.82092373437881,42.097133061410275,6.0475876722647754,0.0,0.0,0.07623852936866375,0.9630493904059453,14.954773869346733
1.1768341217605554,7.640605851231963,5.477333611091887,4.99648898625973,21.35375800281017,13.939617793469361,42.72948380208541,6.099631352644789,0.0,0.0,0.07710108894919616,0.9644157887241344,15.195979899497488
1.1786058166731705,7.696763774097019,5.505900044404525,5.027285321877549,21.64765601888571,14.055435801876106,43.35413984559191,6.15073897510442,0.0,0.0,0.07793659920316803,0.9657431018839568,15.43718592964824
1.1802778615507257,7.750884764671835,5.533777564222595,5.057954655464379,21.933864366026942,14.168409556559508,43.97092476598001,6.200915734225188,0.0,0.0,0.07874548408020324,0.9670315123591252,15.678391959798994
1.1818558611301178,7.80303056509252,5.560972305740052,5.088465467712868,22.212453155560908,14.278573203833085,44.57967665001445,6.250167664938321,0.0,0.0,0.07952819620995598,0.9682812923826167,15.919597989949748
1.1833451049161348,7.853261932475644,5.587491217890692,5.118788363155531,22.48350185712206,14.385962993414147,45.18024784756822,6.2985015666462285,0.0,0.0,0.08028521333418627,0.9694927952450134,16.160804020100503
1.1847505848902184,7.901638577364313,5.613341976539039,5.1488959951555024,22.747098409594553,14.490617052270242,45.772504673664045,6.345924934013612,0.0,0.0,0.08101703497128256,0.9706664470926933,16.402010050251256
1.186077012755052,7.9482191063607175,5.6385329006295954,5.178762990653858,23.003338354873687,14.59257516498077,46.35632709780415,6.392445889865358,0.0,0.0,0.0817241791723793,0.9718027389323415,16.64321608040201
1.1873288347593447,7.9930609866921,5.663072883773769,5.208365873440454,23.252324089085366,14.691878587951642,46.93160836613875,6.438073129070004,0.0,0.0,0.08240717973679727,0.9729022196630646,16.884422110552762
1.1885102469465727,8.036220505547174,5.686971322858399,5.237682989566816,23.494164101075413,14.788569858707035,47.49825464748274,6.482815860420738,0.0,0.0,0.08306658340450455,0.9739654890830789,17.125628140703515
1.189625210008797,8.077752733444566,5.71023804926007,5.266694431873201,23.72897222700459,14.882692610247336,48.05618466465567,6.526683750333012,0.0,0.0,0.08370294710045964,0.9749931910029165,17.366834170854272
1.190677461288124,8.117711511272923,5.732883277822482,5.295381965704414,23.95686705518188,14.974291426751744,48.60532926591892,6.569686879367125,0.0,0.0,0.08431683580593945,0.975986007800832,17.608040201005025
1.1916705278483446,8.156149426881099,5.754917548846001,5.323728956172303,24.177971281185,15.06341168440713,49.145631033420585,6.611835693843369,0.0,0.0,0.08490882024197267,0.9769446545670488,17.849246231155778
1.192607738694586,8.19311779910141,5.776351675452568,5.351720295264495,24.39241110559986,15.150099404321919,49.677043870564454,6.653140961307044,0.0,0.0,0.08547947472264186,0.9778698736314303,18.09045226130653
1.1934922355097195,8.228666672702479,5.797196699899239,5.3793423312871855,24.600315715178432,15.234401127391958,50.19953257118036,6.69361373257616,0.0,0.0,0.08602937537066663,0.978762429941495,18.331658291457284
1.1943269830486605,8.26284481502473,5.817463851773008,5.40658279981971,24.80181678550531,15.316363794397661,50.71307239246999,6.7332653052503035,0.0,0.0,0.0865590984283184,0.9796231066698935,18.57286432160804
1.1951147794635395,8.29569971267884,5.83716450650659,5.433430755310164,24.99704798900872,15.396034627259175,51.2176486312493,6.772107187496487,0.0,0.0,0.08706921859249928,0.9804527008812294,18.814070351758794
1.195858265907089,8.327277573577684,5.856310148249015,5.459876503760333,25.18614454309047,15.47346102089914,51.713256191298875,6.810151065037501,0.0,0.0,0.08756030752222116,0.9812520196029422,19.055276381909547
1.196559934391006,8.357623339392145,5.874912342731333,5.4859115409705685,25.369242862932275,15.548690461417673,52.19989915234086,6.847408775717138,0.0,0.0,0.08803293280240684,0.9820218769825734,19.2964824120603
1.1972221370207514,8.386780688529175,5.892982701968938,5.511528487810403,25.546480134580403,15.62177042366669,52.67759034969655,6.883892277999551,0.0,0.0,0.08848765655809969,0.982763090621056,19.537688442211053
1.1978470937711367,8.414792048691888,5.910532857511204,5.536721029136074,25.717993973202173,15.692748290657732,53.146350947117185,6.919613625864019,0.0,0.0,0.0889250344394784,0.9834764787827642,19.77889447236181
1.1984368993440762,8.441698613193632,5.927574438553537,5.561483857487722,25.88392213914194,15.76167128683837,53.60621002710359,6.954584947555596,0.0,0.0,0.0893456148504735,0.9841628581958315,20.020100502512562
1.1989935308389341,8.467540352816938,5.94411904548188,5.585812613735166,26.044402204210694,15.82858639906866,54.05720417659251,6.988818420834459,0.0,0.0,0.0897499379606318,0.9848230413322256,20.261306532663315
1.1995188542744213,8.49235603372837,5.960178229810131,5.609703832232743,26.199571287959277,15.893540314893725,54.499377081488134,7.022326253150709,0.0,0.0,0.09013853501721757,0.985457834407911,20.50251256281407
1.2000146303124513,8.516183238339961,5.975763478257431,5.633154890344401,26.34956584321932,15.956579372692136,54.932779139409405,7.055120665137769,0.0,0.0,0.09051192785629456,0.9860680358638296,20.74371859296482
1.2004825210592411,8.539058381067584,5.990886190967182,5.656163953174162,26.494521375757845,16.017749495669225,55.35746705857532,7.087213869533094,0.0,0.0,0.09087062813670871,0.9866544341807166,20.984924623115578
1.200924095078698,8.561016732100457,6.005557669337555,5.678729926698642,26.634572273511747,16.077096152604646,55.773503484018065,7.118618057648966,0.0,0.0,0.0912151370300949,0.9872178067915232,21.22613065326633
1.201340832247153,8.582092440174089,6.019789104290275,5.700852413283257,26.769851646116543,16.13466432072424,56.18095664240403,7.149345386368471,0.0,0.0,0.09154594493556978,0.9877589190603326,21.467336683417084
1.2017341299975604,8.602318551074479,6.033591557541811,5.7225316587681885,26.900491078366525,16.190498428029716,56.57989994704286,7.17940795943751,0.0,0.0,0.09186353085639763,0.988278522440205,21.708542713567837
1.2021053064161742,8.621727036064932,6.0469759587785985,5.7437685183392295,27.026620577778814,16.244642342091087,56.97041169062194,7.2088178216931595,0.0,0.0,0.09216836253925823,0.9887773544838123,21.94974874371859
1.202455605757154,8.640348811956153,6.059953090426877,5.764564408598742,27.148368372495586,16.297139322928434,57.352574677401854,7.23758694328528,0.0,0.0,0.09246089601535674,0.9892561374042292,22.190954773869347
1.2027862023946096,8.658213766408775,6.072533580397026,5.78492126870395,27.265860805831412,16.348031999057806,57.72647589610989,7.265727210349535,0.0,0.0,0.09274157552565741,0.989715577567677,22.4321608040201
1.2030982042453156,8.675350782977034,6.084727897002115,5.804841526267434,27.379222261478454,16.397362350701766,58.0922062254615,7.293250417669521,0.0,0.0,0.0930108335383696,0.9901563652191553,22.673366834170853
1.2033926573546696,8.691787764328508,6.096546338473611,5.824328054756742,27.4885750186424,16.445171676413967,58.449860090078666,7.32016825673346,0.0,0.0,0.09326909051782532,0.9905791735958113,22.914572864321606
1.203670548602965,8.707551658422592,6.107999031205189,5.843384144584238,27.594039220095055,16.491500586458386,58.7995351963108,7.346492311229807,0.0,0.0,0.09351675509387386,0.9909846590272104,23.155778894472363
1.2039328095950037,8.722668482251924,6.119095922347174,5.862013466019004,27.695732768236383,16.53638897910103,59.14133222291745,7.372234047799829,0.0,0.0,0.09375422396636038,0.9913734603858242,23.396984924623116
1.2041803196351084,8.73716334737175,6.129846776740995,5.880220038488103,27.793771276599113,16.579876030061264,59.47535454748923,7.3974048104456465,0.0,0.0,0.09398188201210553,0.9917461990347812,23.63819095477387
1.204413908120083,8.751060484228963,6.140261175980079,5.898008205694636,27.888268052569675,16.622000189282637,59.801708016483495,7.422015817016031,0.0,0.0,0.09420010246867686,0.9921034789787507,23.87939698492462
1.204634358539494,8.764383267065725,6.1503485108529,5.9153825967177935,27.979333989082225,16.66279915624509,60.120500619251324,7.446078149662463,0.0,0.0,0.09440924684502838,0.9924458863213701,24.120603015075375
1.2048424094027161,8.777154237523765,6.16011798637431,5.93234811399246,28.06707762934583,16.702309896113306,60.431842347158145,7.469602756794594,0.0,0.0,0.09460966534809077,0.9927739900364769,24.36180904522613
1.2050387585445241,8.789395129983129,6.169578613063859,5.948909891528694,28.151605042058286,16.740568611156938,60.735844846550634,7.492600442428467,0.0,0.0,0.0948016967492284,0.9930883413094954,24.603015075376884
1.2052240637559537,8.801126893516228,6.178739212752924,5.965073286467575,28.23301989878516,16.777610759929335,61.03262130870964,7.515081869070103,0.0,0.0,0.09498566882216966,0.9933894743534819,24.844221105527637
1.2053989464902537,8.812369717411013,6.187608412442276,5.980843842245914,28.311423383964012,16.81347103689332,61.32228615511324,7.537057549357062,0.0,0.0,0.09516189832063389,0.9936779060290147,25.08542713567839
1.205563992738484,8.823143052282445,6.19619464882501,5.996227278555441,28.386914255463317,16.848183387694238,61.60495492037485,7.558537847906027,0.0,0.0,0.0953306913488479,0.9939541364982121,25.326633165829143
1.2057197557714392,8.833465634147037,6.204506165788103,6.011229463573825,28.45958880584777,16.881781000925933,61.880744004199784,7.579532976433246,0.0,0.0,0.09549234347456366,0.9942186492008299,25.5678391959799
1.2058667576708513,8.843355506409019,6.212551016418879,6.02585639778825,28.52954088748722,16.91429631502636,62.149770509659895,7.600052993217518,0.0,0.0,0.09564714000414805,0.9944719112590349,25.809045226130653
1.2060054913669278,8.852830042244964,6.220337062981953,6.040114193221386,28.59686190932489,16.94576101848825,62.41215204903904,7.620107800682829,0.0,0.0,0.09579535617671195,0.9947143736749059,26.050251256281406
1.2061364217442085,8.861905964961531,6.22787198022971,6.054009061768015,28.661640881042764,16.976206061352688,62.66800661924315,7.639707146262508,0.0,0.0,0.09593725747073838,0.9949464718313623,26.29145728643216
1.2062599880248126,8.870599371250531,6.235163254177381,6.067547290970537,28.723964392604046,17.00566165131199,62.917452380873094,7.6588606187790775,0.0,0.0,0.09607309976070423,0.9951686255871576,26.532663316582912
1.2063766041195445,8.878925748363024,6.242218187639748,6.080735240536139,28.78391669137389,17.034157273164304,63.1606076018601,7.677577651756675,0.0,0.0,0.09620312967254951,0.9953812399343329,26.77386934673367
1.2064866612895966,8.886899998730764,6.249043898239002,6.093579314965037,28.841579649969184,17.061721682086155,63.39759040969967,7.6958675189195205,0.0,0.0,0.09632758472737812,0.9955847050464159,27.015075376884422
1.2065905281170526,8.894536454158157,6.255647324631206,6.106085964849267,28.897032854725406,17.08838292596963,63.6285187797419,7.713739338543018,0.0,0.0,0.0964466936853277,0.9957793969406121,27.256281407035175
1.2066885530764164,8.901848901219282,6.262035225139288,6.118261659901867,28.950353581746544,17.114168340562557,63.85351028678751,7.7312020694052945,0.0,0.0,0.09656067672527714,0.9959656776065425,27.497487437185928
1.2067810644325938,8.908850593179173,6.2682141835590945,6.130112891879838,29.001616880341835,17.139104570822685,64.07268211388576,7.748264515079179,0.0,0.0,0.0966697457406919,0.9961438955756347,27.73869346733668
1.2068683725828757,8.91555427553784,6.274190608830439,6.141646149631722,29.050895563804062,17.16321756947962,64.28615081678825,7.764935320796122,0.0,0.0,0.09677410456437935,0.9963143861594213,27.979899497487438
1.20695076987994,8.921972196016952,6.279970740518002,6.152867923385161,29.098260288486415,17.186532617554967,64.49403234997864,7.781222977716993,0.0,0.0,0.09687394922382522,0.9964774719412589,28.22110552763819
1.2070285327890065,8.928116129677782,6.2855606491556255,6.1637846817280995,29.1437795546515,17.209074325296857,64.69644184592407,7.797135820461201,0.0,0.0,0.0969694681892618,0.9966334630770308,28.462311557788944
1.2071019215472996,8.933997386892534,6.290966241741855,6.1744028780081255,29.187519785799985,17.230866652944112,64.89349366348866,7.812682031671786,0.0,0.0,0.09706084260219042,0.9967826577444333,28.703517587939697
1.2071711827758584,8.939626842463543,6.29619326146956,6.184728921801509,29.229545320166253,17.251932909124655,65.08530111375732,7.827869638432947,0.0,0.0,0.09714824655143904,0.9969253424659034,28.94472361809045
1.2072365479602865,8.945014933464936,6.30124729492066,6.194769199657492,29.2699185163186,17.272295778623377,65.27197664637531,7.842706519778124,0.0,0.0,0.09723184723664585,0.997061792516398,29.185929648241206
1.2072982368145884,8.95017169538915,6.306133770908156,6.2045300372502075,29.30869973063853,17.29197731691485,65.45363148409506,7.857200401328794,0.0,0.0,0.09731180530116297,0.9971922723033174,29.42713567839196
1.207356455976017,8.955106760071601,6.310857966738873,6.214017717960401,29.345947409161553,17.310998974688985,65.6303757937869,7.871358861949131,0.0,0.0,0.09738827496092498,0.9973170356901179,29.668341708542712
1.2074114004913914,8.959829377243983,6.315425010315473,6.223238467525422,29.38171811503016,17.32938160531852,65.80231853242337,7.885189333358029,0.0,0.0,0.09746140427546766,0.9974363263932045,29.909547738693465
1.20746325487235,8.964348431985673,6.319839882714398,6.232198444011741,29.41606656340047,17.347145474410592,65.96956734547955,7.898699100740565,0.0,0.0,0.09753133538565943,0.9975503783455407,30.15075376884422
1.207512192504994,8.968672446628325,6.324107422633935,6.2409037481499405,29.449045685765423,17.36431027753606,66.13222866547235,7.9118953072086775,0.0,0.0,0.09759820462639489,0.9976594159365566,30.391959798994975
1.2075583778691266,8.972809611018054,6.32823232831396,6.2493603985608575,29.480706653956123,17.380895146182603,66.2904074597734,7.924784952040337,0.0,0.0,0.09766214289825093,0.9977636545514755,30.633165829145728
1.207601965324192,8.97676777540708,6.332219161520482,6.25757435024726,29.511098937834657,17.396918664622937,66.44420741900353,7.937374895966068,0.0,0.0,0.09772327565451971,0.9978633006130588,30.87437185929648
1.2076431013002162,8.980554482632423,6.336072350334197,6.2655514699473835,29.54027034266018,17.412398878892027,66.59373069933744,7.949671859934265,0.0,0.0,0.09778172332550905,0.9979585522244125,31.115577889447234
1.207681923552404,8.984176964856669,6.339796192352895,6.273297548744264,29.56826705433993,17.427353310374812,66.73907805476799,7.96168242914978,0.0,0.0,0.0978376013263905,0.9980495992179037,31.356783919597987
1.2077185621696735,8.987642162006631,6.3433948578645545,6.280818292441989,29.595133683426027,17.441798967438295,66.8803487350751,7.973413054090354,0.0,0.0,0.09789102032731445,0.9981366235846332,31.597989949748744
1.2077531401088748,8.990956734108243,6.346872392925432,6.288119317917175,29.62091330781307,17.45575235720015,67.01764044741721,7.9848700522765235,0.0,0.0,0.09794208644692624,0.9982197997904555,31.839195979899497
1.207785772942218,8.994127063442026,6.350232722259971,6.295206159387481,29.645647512934893,17.469229497451586,67.15104942371966,7.996059611280748,0.0,0.0,0.09799090131704594,0.9982992949001824,32.08040201005025
1.2078165704944042,8.997159281745741,6.353479652852451,6.302084250968482,29.669376442150366,17.482245929220714,67.28067023347474,8.00698778892559,0.0,0.0,0.09803756247075722,0.9983752691881492,32.321608040201006
1.207845635671699,9.00005925902386,6.35661687601851,6.308758944384263,29.69213882436449,17.494816726570996,67.40659597715211,8.017660517361538,0.0,0.0,0.09808216322231687,0.9984478759751187,32.562814070351756
1.2078730660173191,9.002832630543276,6.35964797132893,6.315235492582236,29.71397202953947,17.506956510453545,67.52891810799838,8.02808360360289,0.0,0.0,0.09812479306191182,0.998517262255988,32.80402010050251
1.207898953753509,9.005484802057092,6.362576409267088,6.321519052250091,29.734912105054484,17.518679459441284,67.64772646141829,8.038262731887272,0.0,0.0,0.09816553775130984,0.9985835688639408,33.04522613065326
1.2079233852110747,9.008020945387774,6.365405553029417,6.327614693940045,29.754993798985247,17.529999317939662,67.76310937017854,8.048203466566374,0.0,0.0,0.09820447927962869,0.9986469304123007,33.28643216080402
1.2079464426686968,9.010446031560935,6.368138663540667,6.333527382244788,29.774250632416898,17.540929413750558,67.87515344279049,8.057911252812561,0.0,0.0,0.09824169636088903,0.998707476095229,33.527638190954775
1.2079682032853263,9.012764817276452,6.370778900006107,6.339261991946158,29.79271490350363,17.55148266216617,67.98394375018013,8.067391419598955,0.0,0.0,0.09827726424795125,0.9987653293974409,33.768844221105525
1.2079887399089126,9.014981862399777,6.373329323733256,6.344823301059143,29.810417741641057,17.561671580217727,68.08956374767438,8.076649181453643,0.0,0.0,0.09831125500739879,0.9988206085440454,34.01005025125628
1.2080081216149947,9.017101542989069,6.375792901481121,6.350215987190765,29.82738915439555,17.571508299449754,68.19209523493862,8.085689640387725,0.0,0.0,0.09834373772814617,0.9988734268440473,34.25125628140703
1.208026413043402,9.019128042053769,6.378172505648223,6.355444638246311,29.843658025694697,17.581004568109073,68.29161848660716,8.094517787926572,0.0,0.0,0.09837477838307314,0.9989238924661329,34.49246231155779
1.2080436757316253,9.02106537837674,6.380470920205393,6.360513739582638,29.859252202680672,17.590171772843185,68.38821209987955,8.103138507295071,0.0,0.0,0.09840444028980341,0.9989721091983367,34.733668341708544
1.2080599675178236,9.022917397704903,6.382690840677147,6.365427683651747,29.87419849067673,17.59902093996034,68.48195311448319,8.111556575183052,0.0,0.0,0.09843278397469202,0.9990181762253747,34.97487437185929
1.208075342872921,9.02468778219855,6.384834877058644,6.370190768874245,29.888522693480684,17.607562746811006,68.57291700184012,8.119776663761964,0.0,0.0,0.09845986732712805,0.9990621883842102,35.21608040201005
1.2080898535732119,9.026380066919621,6.386905557989331,6.374807194748932,29.902249673042682,17.615807537623226,68.66117760775238,8.127803342926008,0.0,0.0,0.09848574586741148,0.9991042366072588,35.4572864321608
1.208103547914088,9.027997626128805,6.388905329524551,6.379281073075059,29.915403325920227,17.62376532019042,68.74680729400069,8.135641081555182,0.0,0.0,0.09851047252809127,0.9991444075620238,35.698492462311556
1.2081164720210906,9.029543703548761,6.390836561966687,6.383616416302973,29.928006683767016,17.631445791285454,68.8298767964352,8.14329425040286,0.0,0.0,0.09853409814558928,0.9991827844643586,35.93969849246231
1.2081286693392495,9.031021404074489,6.392701549509926,6.387817145579929,29.940081903298957,17.638858336370735,68.91045532798027,8.150767123436097,0.0,0.0,0.0985566713277967,0.9992194468602077,36.18090452261306
1.2081401804309193,9.03243369140756,6.394502510807666,6.391887095241189,29.951650270541396,17.646012032495463,68.98861063881743,8.158063879230134,0.0,0.0,0.09857823841535504,0.9992544705611993,36.42211055276382
1.2081510441397287,9.033783416550671,6.396241595880941,6.39583000325362,29.96273230229663,17.652915674244465,69.06440889744829,8.165188604197233,0.0,0.0,0.09859884394948958,0.9992879284207539,36.66331658291457
1.2081612969157136,9.035073304639496,6.3979208844273785,6.399649520504336,29.97334771577741,17.659577768396282,69.13791481235461,8.172145293298685,0.0,0.0,0.098618530455778,0.9993198899749567,36.904522613065325
1.2081709729054704,9.036305958875351,6.399542387592115,6.4033492121526825,29.983515451341734,17.666006541135616,69.20919165289254,8.178937851720622,0.0,0.0,0.09863733850805242,0.999350421547979,37.14572864321608
1.208180104759554,9.037483882215263,6.401108053843017,6.4069325522559195,29.99325375796864,17.672209960476035,69.27830118066596,8.185570098071203,0.0,0.0,0.09865530708805645,0.9993795868505562,37.38693467336683
1.2081887230229085,9.03860946392638,6.402619766694553,6.410402931593657,30.0025801542026,17.678195728437935,69.34530375658943,8.192045764530542,0.0,0.0,0.09867247336029143,0.9994074466037264,37.62814070351759
1.2081968564949777,9.039684990604606,6.40407934822945,6.413763656678729,30.01151147758712,17.68397129481942,69.41025832960233,8.198368499251147,0.0,0.0,0.0986888728547769,0.9994340588428433,37.86934673366834
1.2082045325930968,9.04071265757388,6.405488562795755,6.417017948893455,30.020063936716692,17.689543871675514,69.47322242631702,8.204541868883167,0.0,0.0,0.0987045396566611,0.9994594792332725,38.11055276381909
1.2082117769041547,9.041694557912441,6.4068491148330935,6.420168949906945,30.028253074227273,17.694920425539927,69.53425222949805,8.210569358430975,0.0,0.0,0.09871950622005037,0.9994837607582104,38.35175879396985
1.2082186137434434,9.042632699835751,6.408162654319826,6.42321971970989,30.036093845157296,17.700107698665512,69.59340255059043,8.21645437469173,0.0,0.0,0.09873380365863313,0.999506954203222,38.5929648241206
1.2082250661315834,9.04352900743757,6.409430777670447,6.426173238733074,30.043600626538716,17.705112212886874,69.65072686155057,8.222200247505672,0.0,0.0,0.09874746175627745,0.9995291081728482,38.834170854271356
1.2082311555119045,9.044385313602962,6.410655026350386,6.429032411411489,30.050787192837944,17.709940264654744,69.70627734858675,8.227810229807568,0.0,0.0,0.09876050884581929,0.9995502688873452,39.075376884422106
1.2082369024137907,9.045203381115133,6.411836893595632,6.4318000641516235,30.057666812945076,17.714597951330656,69.76010488200583,8.233287501856019,0.0,0.0,0.09877297216254947,0.9995704807716335,39.31658291457286
1.208242326133672,9.045984894348898,6.412977822631086,6.434478948985427,30.06425221979075,17.719091164659947,69.812259071641,8.238635171048708,0.0,0.0,0.09878487770248133,0.9995897862179027,39.55778894472362
1.208247444685286,9.046731458839364,6.414079207103196,6.43707174549837,30.07055561330714,17.72342559275255,69.86278829677528,8.24385627284428,0.0,0.0,0.09879625021325596,0.9996082255696509,39.79899497487437
1.2082522753619258,9.047444619936105,6.415142397281351,6.439581059898723,30.076588749137542,17.727606744504808,69.9117396911242,8.248953774855137,0.0,0.0,0.09880711350620872,0.999625837641157,40.040201005025125
1.2082568344084839,9.048125853713659,6.416168697882871,6.442009428275762,30.082362902795268,17.731639941444424,69.95915919362383,8.253930576343341,0.0,0.0,0.09881749030153672,0.9996426594584918,40.281407035175874
1.2082611369212573,9.048776564602834,6.417159367818881,6.444359318495416,30.087888862608104,17.73553031698421,70.00509157902624,8.258789508702396,0.0,0.0,0.09882740218652605,0.9996587261890961,40.52261306532663
1.208265197465945,9.049398106717554,6.418115627470809,6.446633129727544,30.093177033860268,17.739282845178202,70.04958044707391,8.263533340309163,0.0,0.0,0.09883686997270726,0.9996740717362746,40.76381909547739
1.2082690297088876,9.04999177271036,6.419038655668036,6.4488331952834335,30.0982373908279,17.74290232913971,70.09266826919543,8.268164775410783,0.0,0.0,0.09884591350640189,0.9996887284226118,41.00502512562814
1.2082726463210005,9.050558791078489,6.419929589193474,6.4509617840932405,30.103079466483425,17.74639339926918,70.1343964139955,8.272686454380372,0.0,0.0,0.09885455162171394,0.9997027269108865,41.246231155778894
1.2082760595455053,9.051100347031465,6.420789530262368,6.4530211014191154,30.107712458864192,17.749760543011753,70.17480515148901,8.27710095890401,0.0,0.0,0.09886280248951723,0.9997160967847816,41.48743718592964
1.2082792808673013,9.051617571676408,6.421619543331926,6.455013290765026,30.11214518124465,17.753008092452333,70.21393368796583,8.281410810598006,0.0,0.0,0.09887068343395464,0.9997288662423783,41.7286432160804
1.2082823209422542,9.05211153980244,6.422420654633153,6.456940434883488,30.116386052649677,17.75614022256323,70.25182018492154,8.285618471190334,0.0,0.0,0.09887821089403277,0.9997410620316307,41.969849246231156
1.2082851900493548,9.052583287881845,6.423193859054426,6.458804557829727,30.120443194468336,17.75916097883339,70.28850178230769,8.28972634758004,0.0,0.0,0.09888540072321955,0.9997527099482999,42.211055276381906
1.2082878978401295,9.05303380519018,6.423940117328289,6.460607625883466,30.124324386939193,17.762074266187618,70.3240146194152,8.293736790508081,0.0,0.0,0.09889226803937849,0.9997638345855361,42.45226130653266
1.2082904532765795,9.053464031709135,6.424660355522097,6.4623515482731815,30.128037059463914,17.764883847019338,70.35839384955084,8.29765209464777,0.0,0.0,0.09889882718876994,0.9997744592736502,42.69346733668341
1.2082928649949882,9.053874873608734,6.4253554712997705,6.464038180094219,30.13158837716052,17.76759336650508,70.39167367672447,8.301474503451761,0.0,0.0,0.09890509200229593,0.9997846065051876,42.93467336683417
1.2082951411128884,9.054267195956575,6.426026331476035,6.465669322601301,30.134985203441897,17.77020634287045,70.42388736683802,8.305206207922447,0.0,0.0,0.09891107567288805,0.9997942977307194,43.175879396984925
1.2082972891583137,9.054641820218942,6.426673771319042,6.4672467237671905,30.138234087921624,17.77272616464887,70.45506725985442,8.308849346536547,0.0,0.0,0.09891679071295414,0.9998035532879329,43.417085427135675
1.2082993163956945,9.054999538590813,6.427298600531241,6.468772081613124,30.141341348140813,17.77515611495041,70.48524481354487,8.312406010021583,0.0,0.0,0.09892224919080825,0.9998123927931811,43.65829145728643
1.2083012296533646,9.055341107255014,6.427901600897809,6.470247044168558,30.14431303408896,17.777499362045315,70.51445060922633,8.315878240100607,0.0,0.0,0.09892746261767822,0.9998208349536887,43.89949748743718
1.208303035230277,9.055667242756002,6.428483525079202,6.471673209633131,30.14715490925622,17.77975895453121,70.54271435859249,8.319268028996243,0.0,0.0,0.09893244188673374,0.9998288974662116,44.14070351758794
1.2083047392510997,9.055978638025126,6.429045103434655,6.473052130560689,30.149872543351538,17.781937849090394,70.5700649594214,8.322577324952684,0.0,0.0,0.09893719753690168,0.9998365974535908,44.381909547738694
1.2083063474709417,9.056275954365015,6.429587041049983,6.474385313221114,30.152471268676297,17.78403889850889,70.59653049299098,8.325808030439456,0.0,0.0,0.09894173961922605,0.9998439512429953,44.62311557788944
1.2083078652103532,9.056559818798576,6.430110016847098,6.475674217688841,30.154956165907144,17.786064848093062,70.6221382293541,8.328962001836484,0.0,0.0,0.09894607765241079,0.9998509742921051,44.8643216080402
1.2083092975582195,9.056830833832075,6.430614687979331,6.476920261184767,30.157332122502396,17.788018353632676,70.64691467396239,8.332041053229613,0.0,0.0,0.0989502207825223,0.9998576814529553,45.10552763819095
1.2083106493732505,9.057089577974452,6.43110169031775,6.478124819085888,30.1596038372939,17.78990198344144,70.67088558483113,8.335046957184606,0.0,0.0,0.09895417779054351,0.9998640869840812,45.346733668341706
1.208311925181966,9.05733660131314,6.431571636782811,6.4792892244703975,30.161775795695664,17.79171821159139,70.69407597067872,8.33798144380941,0.0,0.0,0.09895795701888414,0.9998702044287018,45.58793969849246
1.2083131291928408,9.057572426509505,6.432025117997242,6.480414769129681,30.163852276740407,17.793469420615867,70.71651010783602,8.34084620163183,0.0,0.0,0.09896156638694746,0.9998760466401773,45.82914572864321
1.208314265502024,9.057797559250355,6.432462707157964,6.481502707711984,30.165837417238624,17.795157921499428,70.7382115985195,8.343642881897166,0.0,0.0,0.09896501356122636,0.9998816260627414,46.07035175879397
1.2083153379429739,9.058012481222692,6.432884957139218,6.482554256175707,30.16773517064716,17.79678594184908,70.75920335409332,8.346373096586976,0.0,0.0,0.09896830583965809,0.9998869545401603,46.311557788944725
1.2083163500276266,9.05821764712541,6.433292399228868,6.483570591009821,30.169549288873377,17.798355620687158,70.77950758708056,8.3490384176346,0.0,0.0,0.09897145010286895,0.9998920432351882,46.552763819095475
1.2083173051959701,9.058413498204203,6.433685549700612,6.484552855499826,30.171283407841372,17.799869035542837,70.79914590019783,8.3516403828488,0.0,0.0,0.09897445303287115,0.9998969029900029,46.79396984924623
1.208318206669728,9.058600454795661,6.434064906502803,6.48550215728476,30.17294100185213,17.801328188833423,70.81813925591943,8.354180493427442,0.0,0.0,0.09897732099160153,0.9999015441256544,47.03517587939698
1.208319057429452,9.058778915128455,6.4344309487802445,6.486419568127233,30.17452537620903,17.802735005875448,70.83650797533788,8.356660213786661,0.0,0.0,0.09898006000144086,0.9999059764099456,47.27638190954774
1.2083198603289589,9.058949262057517,6.434784140388391,6.487306127845515,30.17603971135179,17.80409134943016,70.85427179653475,8.359080975003565,0.0,0.0,0.09898267585296061,0.9999102092345763,47.517587939698494
1.208320618084357,9.059111862686144,6.435124929876013,6.48816284467582,30.17748706116886,17.805399019638838,70.87144988226378,8.361444175100088,0.0,0.0,0.09898517409836187,0.9999142516041684,47.75879396984924
1.208321333255341,9.059267067537805,6.435453750240309,6.488990695396392,30.178870348388173,17.80665975301697,70.8880608242249,8.363751179119596,0.0,0.0,0.09898756003773487,0.9999181121135288,48.0
