DSB,ATM_active,ATR_active,CHK1_active,CHK2_active,p53_active,p21_active,PARP_active,RAD51_focus,CellCycleArrest,ApoptosisSignal,SurvivalSignal,Time
0.0,0.0,5.0,5.0,2.0,2.0,0.0,3.0,0.0,0.0,0.0,0.9,0.0
0.06795140387950169,0.012214480445663102,4.828869580318016,4.983350529745626,1.8613616239208186,2.526033780379048,0.4283113756696312,2.9296531316198817,0.00462526392432579,0.0,0.00034719232298983797,0.8989219236502743,0.24120603015075376
0.13192364517580274,0.04714810736762487,4.6763191931983075,4.958595391601979,1.7379673526357535,2.9613732763966016,0.9266002054198815,2.8631834018577784,0.017609043133242207,0.0,0.0008006096590027461,0.8978685139768108,0.4824120603015075
0.1917889474887519,0.10230786602806326,4.5409251284382455,4.927212207379253,1.6337445176578387,3.325348352682749,1.4763842621499568,2.800364001305374,0.03769325279903608,0.0,0.0013481262527912789,0.8968547519590743,0.7236180904522613
0.24728349954775714,0.175246376098151,4.421275781179642,4.890512615406752,1.5517725786322625,3.6336000411822855,2.063332121329202,2.7409667550169985,0.06370155325362858,0.0,0.0019795244850271685,0.8958952737117923,0.964824120603015
0.2980840629069534,0.26352566701019603,4.315952924477428,4.849652060167992,1.4943480919833536,3.8987050452220573,2.676434049152505,2.6847589311944615,0.09451950143191258,0.0,0.002686026224702358,0.8950038797936176,1.2060301507537687
0.3438734142204072,0.3647077226373022,4.2235270968046335,4.805638369963857,1.463039970960679,4.130687434412011,3.3073184244323235,2.6315024941215217,0.12908583921864553,0.0,0.003459929420967657,0.8941930591495697,1.4472361809045227
0.3843939618311987,0.4763665260408721,4.1425644523363445,4.759339911173149,1.458741321431017,4.337442434822624,3.949688088213623,2.5809553645000722,0.16639244791013255,0.0,0.004294335523026798,0.893473559610917,1.6884422110552764
0.41948801160493354,0.5961161374385553,4.071642277123606,4.7114939096149735,1.481722458840366,4.525091879976383,4.59885626831306,2.5328742187037174,0.20549054324749538,0.0,0.005182954198446026,0.892854039999943,1.92964824120603
0.4491233370663966,0.7216490941593974,4.009370204380194,4.662715332731784,1.5316880869870482,4.6982861856455775,5.251366103414133,2.487018322243559,0.24550070695860168,0.0,0.006119972016253722,0.8923408344072988,2.170854271356784
0.47340370129895887,0.8507793404942057,3.9544140793239166,4.613506532531909,1.6078400599304155,4.860464040207891,5.904680738198961,2.443153871527397,0.28562442752340794,0.0,0.00709997141821783,0.8919378480151434,2.4120603015075375
0.4925652564805931,0.981484293457361,3.9055196002752153,4.564267672344216,1.7089457560940633,5.014077653274543,6.5569336447890425,2.4010583425849066,0.32515507132784227,0.0,0.008117886724846852,0.8916465894975144,2.6532663316582914
0.5069611314946031,1.1119414627215298,3.8615332627049015,4.515307804455742,1.833410898301686,5.160789080493218,7.206730267301817,2.3605244095821454,0.3634865967998271,0.0,0.009168984625312838,0.8914663290897629,2.8944723618090453
0.5170374626993238,1.240556278343767,3.8214187686900742,4.466856354383837,1.9793548281282438,5.301641167673558,7.852993535758244,2.3213631029264876,0.4001188529945054,0.0,0.01024885845371128,0.8913943588386863,3.135678391959799
0.5233045978137473,1.3659791692143155,3.7842677900704285,4.419074698462819,2.1446857609998644,5.437205425363469,8.494846657453511,2.283406000893815,0.4346588679662371,0.0,0.011353427780554606,0.891426323196502,3.3768844221105527
0.5263071157927595,1.487111350236734,3.749304722714801,4.372067497932442,2.3271734283496883,5.567708430170465,9.131527229048409,2.246506378510343,0.4668180814649089,0.0,0.012478937387136277,0.8915565851976462,3.618090452261306
0.5265957341807774,1.6031000144178198,3.7158857331068513,4.325893472668091,2.5245167287218377,5.6931380517423,9.762327246720252,2.210539353878476,0.4964059354775098,0.0,0.01362195218803375,0.8917785957632719,3.85929648241206
0.5247033179516877,1.713324493117287,3.683492870558313,4.280575345638488,2.7344044307208697,5.813330720535701,10.386554166010725,2.1754011561977844,0.5233205397486949,0.0,0.014779346739046796,0.8920852397363297,4.100502512562814
0.5211262508357652,1.8173755365491415,3.651724346691574,4.236108760799946,2.9545675677659555,5.928041197085217,11.003508523974684,2.141007699450579,0.5475373143329088,0.0,0.015948289527786107,0.8924691400937353,4.341708542713568
0.516311557312293,1.9150300091850119,3.6202821755547276,4.192470052103151,3.1828227663670456,6.036996443880428,11.612474233870325,2.107292664400405,0.5690965260135771,0.0,0.017126223174677498,0.8929229100144821,4.582914572864321
0.5106494684206216,2.0062232170501084,3.588958342123146,4.1496228178169305,3.417106352082893,6.139935455875868,12.212718111739102,2.0742052897477796,0.5880905657119576,0.0,0.018310842100707023,0.89343934966545,4.824120603015075
0.5044706897787188,2.0910207734672683,3.557620514084006,4.107523313468552,3.65549953011263,6.23663696897025,12.803495761945765,2.0417080487664516,0.6046516658965927,0.0,0.019500069229652073,0.8940115897984441,5.065326633165829
0.4980473611589055,2.169591513850127,3.526198113110633,4.066124736404262,3.8962453826683663,6.326937103102933,13.384061402335796,2.0097743551785996,0.618940576625505,0.0,0.02069203307118134,0.8946331882186452,5.306532663316583
0.49159669156039476,2.2421825313142776,3.4946693336011108,4.025380499210642,4.13775859148293,6.410738827099443,13.95367975639408,1.9783864032046872,0.6311365413094557,0.0,0.02188504616846686,0.8952981865375805,5.547738693467337
0.48528629694355957,2.3090970029949194,3.4630494890251367,3.9852466195636405,4.378628999074895,6.48801509570994,14.511638533911814,1.947533211578108,0.6414287470438234,0.0,0.023077585526871874,0.8960011355360626,5.788944723618091
0.47924043624976875,2.3706751188985633,3.4313808768413123,3.9456833597392795,4.617620134825938,6.558807278390637,15.057260446831167,1.9172089086466668,0.6500092881123397,0.0,0.02426827529809962,0.896737096898839,6.030150753768844
0.4735465266998126,2.4272781930454794,3.399724228266774,3.906656241780333,4.8536637550434785,6.623220246658902,15.589914024055423,1.8874112738147226,0.6570675988661465,0.0,0.025455871763443792,0.8975016279434576,6.271356783919598
0.4682614787375497,2.479275786612132,3.368151677253272,3.8681365707117665,5.085851454752802,6.6814153412989565,16.109022774501366,1.8581405278651955,0.6627862174355934,0.0,0.026639250443327493,0.8982907552493271,6.5125628140703515
0.46341756893601127,2.5270356047806213,3.336741141821684,3.8301015708061463,5.313424186235383,6.73360210864885,16.61407246705257,1.8293983567244596,0.6673377316234126,0.0,0.027817395099382553,0.8991009414079081,6.7537688442211055
0.45902767794072646,2.5709158445393077,3.305571964749944,3.7925342338515695,5.535760450415604,6.780029552272998,17.10461644500818,1.8011871450418369,0.670882731537596,0.0,0.02898938833839663,0.8999290483115325,6.994974874371859
0.45508983001461895,2.611259612149872,3.2747216268101567,3.7554229650132025,5.7523637953445,6.820977442769506,17.580279052799693,1.773509389697955,0.6735685810600778,0.0,0.0301544035059777,0.9007722994407615,7.236180904522612
0.4515910263546618,2.6483910920998346,3.244263375280113,3.7187610897374133,5.962850090700608,6.856748050018439,18.040757292735883,1.746367267825824,0.6755288556552292,0.0,0.031311697622923816,0.9016282427331951,7.477386934673366
0.4485104115087938,2.682613129044558,3.214264598284568,3.6825462787448204,6.166934976500322,6.887658561726721,18.48582090683356,1.7197623316368087,0.6768832916759605,0.0,0.032460605125502286,0.9024947151801862,7.71859296482412
0.4458218410392056,2.7142059273395844,3.1847857955557215,3.6467799331480006,6.364421760508606,6.91403432455865,18.915311110445337,1.6936953053839618,0.677738117435419,0.0,0.0336005322233699,0.9033698097722,7.959798994974874
0.4434959196983647,2.7434266279620334,3.1558800236908606,3.611466561297352,6.555189964852159,6.936202981907633,19.329138190961213,1.6681659642609763,0.6781866623189967,0.0,0.034730951739754615,0.9042518451514926,8.201005025125628
0.44150158844667914,2.7705095436781986,3.1275927037731255,3.5766131719423964,6.739184659005946,6.954489521291343,19.72727819946262,1.6431730765337471,0.6783101527593043,0.0,0.03585139832546442,0.905139338112449,8.442211055276381
0.43980733870913885,2.795666869737413,3.0999616969410595,3.5422287001382027,6.916406647377231,6.969212190138396,20.10976895579934,1.6187143930404904,0.6781786225431617,0.0,0.036961463970363755,0.9060309789008069,8.683417085427136
0.43838211779319336,2.8190897344103885,3.0730175774608552,3.5083234763155144,7.0869035427264935,6.980679223729943,20.476705549857904,1.5947866721774226,0.6778518851259518,0.0,0.03806079376657463,0.906925609203045,8.924623115577889
0.4371959771905008,2.840949479583387,3.0467840465183995,3.474908747075674,7.250761756758133,6.9891863347825085,20.828235500704473,1.571385730804401,0.6773805253003639,0.0,0.03914908189725927,0.9078222027420625,9.165829145728642
0.4362205278307987,2.861399065817187,3.021278430283951,3.4419962494359826,7.408099351297193,6.995014847408432,21.164553746178587,1.5485065113656054,0.6768068755277374,0.0,0.040226067823353355,0.9087198481734712,9.407035175879397
0.43542923979222914,2.880574544689815,2.9965122314368426,3.409597838144039,7.559059704526819,6.998430394322769,21.48589756885044,1.5261431598962059,0.6761659593320668,0.0,0.04129153266029373,0.9096177340742382,9.64824120603015
0.4347976111303191,2.8985965478632525,2.972491708189809,3.377725169345407,7.703806006126289,6.999682136040235,21.792541561016517,1.5042891105425231,0.6754863824416897,0.0,0.042345295753668695,0.9105151359731334,9.889447236180905
0.4343032493136444,2.9155717459412527,2.9492184535713624,3.346389433596645,7.84251645200483,6.99900237089209,22.08479272173655,1.4829371716874344,0.6747911638657176,0.0,0.043387211434954505,0.9114114050323602,10.130653266331658
0.43392588027269136,2.9315942525432783,2.926689961987545,3.315601137876747,7.97538012365086,6.996606492682061,22.3629857503673,1.4620796114478092,0.6740984992400421,0.0,0.04441716596895264,0.9123059583025374,10.37185929648241
0.433647308094275,2.9467469613122876,2.904900174207672,3.285369928818336,8.10259343661271,6.992693206021073,22.627478563809063,1.4417082407860837,0.6734224602771326,0.0,0.045435074676059,0.9131982702506563,10.613065326633166
0.4334513313740677,2.9611027915917827,2.883839989259828,3.2557044603306347,8.224357197216959,6.987444987351185,22.878648109932413,1.4218144923724674,0.6727736190313882,0.0,0.046440879256695315,0.9140878656203775,10.854271356783919
0.4333236380844214,2.974725846505886,2.8634977415075893,3.226612293583671,8.340874100354771,6.981028689081634,23.116886462616236,1.4023894945323334,0.672159610216373,0.0,0.047434545282834896,0.9149743132306493,11.095477386934673
0.4332516825583074,2.9876724717372096,2.8438596373008473,3.198099829954388,8.452346679372685,6.973596271523099,23.342597240986283,1.383424139353775,0.6715856268125399,0.0,0.04841605987477677,0.9158572207246849,11.336683417085426
0.4332245528072922,2.999992222592038,2.824910153298907,3.1701722703463857,8.558975621549546,6.965285615950696,23.556192332771474,1.364909145117977,0.671054857879984,0.0,0.049385429544092224,0.9167362300748985,11.577889447236181
0.43323283276762514,3.0117287389506227,2.806632395592323,3.142833598120684,8.660958414586002,6.956221393627559,23.75808892611649,1.3468351128269616,0.6705688709848099,0.0,0.05034267819978403,0.9176110137640464,11.819095477386934
0.43326846390422286,3.02292052450083,2.78900841741656,3.116086583526517,8.758488300303714,6.946515966145979,23.94870686653055,1.3291925764011794,0.6701279398079294,0.0,0.05128784532195757,0.9184812715870356,12.060301507537687
0.4333246103456258,3.033601643754781,2.7720195007530988,3.0899328036226588,8.851753458469114,6.936270286958431,24.128466299262495,1.311972047271271,0.669731327227385,0.0,0.05222098427950622,0.9193467279117116,12.301507537688442
0.43339552891461314,3.0438023393204405,2.7556464027806675,3.0643726757843894,8.940936400038185,6.9255747926435465,24.29778559267325,1.2951640534799662,0.6693775263092675,0.0,0.05314216078958998,0.9202071293562196,12.542713567839195
0.4334764450895786,3.053549578099322,2.7398695708089136,3.0394055019326363,9.02621353324073,6.914510274204219,24.457079515046726,1.278759173826858,0.6690644648627475,0.0,0.05405145150452951,0.9210622428092136,12.78391959798995
0.4335634365762377,3.062867527439486,2.7246693259684283,3.0150295217750736,9.107754884460407,6.903148716466323,24.606757664591473,1.2627480670610294,0.6687896753000594,0.0,0.05494894272560109,0.9219118537565928,13.025125628140703
0.433653325712167,3.071777965270569,2.710026017325195,2.99124197290279,9.185723949930527,6.891554095135935,24.74722314207654,1.2471214963492396,0.6685504330000714,0.0,0.05583472923903545,0.922755764868624,13.266331658291456
0.4337435802741442,3.0803006384866425,2.695920152735343,2.968039154644725,9.260277636223197,6.879783129198653,24.87887141769006,1.2318703499951964,0.6683438711025796,0.0,0.05670891325108098,0.9235937947662983,13.507537688442211
0.433832223062478,3.088453570195699,2.6823325067453925,2.9454164949331996,9.331566283740608,6.867885985005293,25.00208939144464,1.2169856584475336,0.6681670724263967,0.0,0.057571603423070154,0.9244257769577734,13.748743718592964
0.4339177496218814,3.096253323853605,2.6692442091429607,2.923368618797383,9.399733753296497,6.855906933786111,25.117254618742976,1.2024586081627016,0.6680171426761176,0.0,0.05842291399311721,0.9252515589074205,13.989949748743719
0.4339990546472289,3.1037152255798923,2.656636814754163,2.901889417442368,9.464917566444205,6.84388495764435,25.224734698309565,1.1882805524018032,0.6678912661265387,0.0,0.05926296398441179,0.9260710012220976,14.231155778894472
0.4340753667602649,3.110853549985178,2.6444923569234504,2.8809721167619724,9.527249085202499,6.831854304047976,25.32488680412365,1.1744430193415865,0.6677867466621407,0.0,0.06009187649255818,0.9268839769297228,14.472361809045225
0.43414619067442356,3.117681676895832,2.632793388056154,2.860609344339409,9.586853716383319,6.819844993167811,25.418057334348433,1.1609377180395857,0.6677010377353514,0.0,0.06090977803974654,0.9276903708235245,14.71356783919598
0.4342112562572421,3.1242122224710593,2.621523008861133,2.8407931944321922,9.643851133658881,6.807883280134569,25.50458166439953,1.1477565425156626,0.6676317629305105,0.0,0.0617167979904382,0.9284900788607242,14.954773869346733
0.43427047459104745,3.130457145645229,2.6106648867963043,2.8215152903797374,9.698355513231046,6.795992070625678,25.58478400133577,1.134891574025533,0.667576727797139,0.0,0.06251306802898883,0.929283007611347,15.195979899497488
0.4343238987587515,3.136427839250434,2.6002032679047438,2.802766844744168,9.750475774166231,6.784191304006754,25.65897730219183,1.1223350822186489,0.6675339266071795,0.0,0.06329872167844537,0.930069073735515,15.43718592964824
0.4343716916447904,3.1421351990017596,2.5901229791489895,2.784538715829862,9.80031582364239,6.772498287874368,25.727463285189916,1.1100795246878605,0.6675015419477603,0.0,0.06407389388040674,0.9308482035010787,15.678391959798994
0.4344140984056146,3.1475896797619636,2.580409425477597,2.7668214609212685,9.847974798588375,6.760927998676416,25.79053249597842,1.0981175456122663,0.6674779407939718,0.0,0.06483872061541679,0.9316203323213893,15.919597989949748
0.43445142314897145,3.152801341050705,2.571048582578158,2.749605386135091,9.893547301388503,6.749493350871704,25.848464420962447,1.08644197365062,0.6674616678846254,0.0,0.06559333856078604,0.93238540431028,16.160804020100503
0.4344840093557478,3.157779883517656,2.5620269861253098,2.732880592916208,9.937123628321032,6.738205437437329,25.90152764049374,1.0750458192203214,0.6674514370567464,0.0,0.06633788478247009,0.9331433718523059,16.402010050251256
0.43451222392527417,3.1625346769519167,2.553331717846747,2.716637021040122,9.978789989714597,6.727073742096046,25.94998001941462,1.0639222712151648,0.6674461208159913,0.0,0.06707249646069402,0.9338941951884184,16.64321608040201
0.43453644411558384,3.1670747820354097,2.5449503893753507,2.7008644884848882,10.0186287214733,6.716106328236973,25.99406892542011,1.0530646933264771,0.66744473884751,0.0,0.0677973106433894,0.934637842013996,16.884422110552762
0.434557047385419,3.171408966381829,2.5368711242463315,2.6855527277860607,10.056718485718687,6.705310003676324,26.034031473055045,1.042466620024193,0.6674464458512943,0.0,0.06851246402846294,0.9353742870893554,17.125628140703515
0.4345744034972306,3.175545716711855,2.5290825388652416,2.6706914191903977,10.093134460435811,6.694690465588536,26.070094785128042,1.032121752339049,0.6674505192788517,0.0,0.06921809277006633,0.9361035118608522,17.366834170854272
0.43458886848398964,3.1794932482045684,2.521573722924756,2.6562702208096667,10.127948518296028,6.684252428265197,26.102476266631154,1.0220239535285596,0.6674563472757823,0.0,0.06991433230610945,0.9368255040922691,17.608040201005025
0.4346007801849217,3.1832595117137856,2.5143342195875724,2.6422787959523517,10.161229395016697,6.6739997357129806,26.13138388769933,1.0121672446825336,0.667463417008763,0.0,0.07060131720496932,0.9375402575066367,17.849246231155778
0.4346104551549832,3.186852199296402,2.5073540056593355,2.6287068377246485,10.193042847412961,6.663935460343033,26.157016473160184,1.002545800307586,0.6674713035007408,0.0,0.07127918103022307,0.9382477714390232,18.09045226130653
0.4346181868754487,3.1902787483722337,2.5006234720010667,2.6155440907165706,10.223451800204979,6.6540619876805644,26.179563996574956,0.993153943932673,0.6674796591664134,0.0,0.07194805622405315,0.938948050502028,18.331658291457284
0.4346242441749991,3.1935463458375066,2.4941334041641015,2.602780371977555,10.252516489907917,6.644381098230216,26.199207873698242,0.9839861437482154,0.667488203624038,0.0,0.07260807399473101,0.939641104254956,18.57286432160804
0.4346288715128758,3.1966619305691784,2.4878749637451043,2.590405587326631,10.28029459037296,6.634894028122867,26.216121259649675,0.9750370083374352,0.6674967148411567,0.0,0.0732593642330658,0.9403269468946306,18.814070351758794
0.4346322891792788,3.199632196627502,2.481839670421108,2.5784097469238163,10.306841334892153,6.6256015283617025,26.230469340751927,0.9663012825211912,0.6675050208372768,0.0,0.07390205543215109,0.941005596952184,19.055276381909547
0.4346346940399146,3.2024635964090744,2.4760193847844674,2.5667829786599965,10.33220962941799,6.616503915778571,26.242409622887145,0.9577738433284608,0.6675129922565382,0.0,0.07453627461993075,0.9416770770032303,19.2964824120603
0.4346362604924118,3.2051623438047145,2.4704062915492195,2.5555155406127414,10.3564501619518,6.607601120533039,26.25209221791404,0.9494496960261656,0.667520535321919,0.0,0.0751621472971629,0.9423414133841828,19.537688442211053
0.43463714195537145,3.2077344179009364,2.464992884349945,2.5445978302574495,10.379611498375136,6.598892722669392,26.259660120335482,0.9413239704075579,0.6675275863042193,0.0,0.07577979739360116,0.942998635931102,19.77889447236181
0.4346374721449832,3.2101855669297916,2.459771950803934,2.534020393691666,10.40174017824424,6.590377989647312,26.265249480028473,0.9333919171310534,0.6675341060630959,0.0,0.07638934722388033,0.9436487777224478,20.020100502512562
0.4346373666944279,3.2125213125051006,2.4547365587210077,2.523773932580877,10.422880801042506,6.582055906234944,26.268989866905162,0.9256489042489844,0.6675400756146337,0.0,0.07699091745634999,0.9442918748395372,20.261306532663315
0.43463692455996655,3.214746953790994,2.449880041809634,2.513849312232668,10.443076117074833,6.573925208382257,26.271004538650924,0.9180904136544281,0.6675454912182992,0.0,0.07758462707537073,0.9449279661188287,20.50251256281407
0.4346362298840152,3.216867572694624,2.445195988216092,2.504237564776856,10.462367097716502,6.5659844019715194,26.271410686111285,0.910712038004765,0.6675503618024013,0.0,0.07817059337099397,0.9455570929467835,20.74371859296482
0.4346353534148433,3.2188880392760404,2.4406782290206004,2.4949298932615354,10.480793009093789,6.558231785921312,26.270319675193075,0.9035094776504295,0.6675547060927209,0.0,0.07874893192322059,0.946179299053745,20.984924623115578
0.43463435403477246,3.2208130166121998,2.4363208258045423,2.4859176768507165,10.498391490643474,6.550665477740213,26.26783729791057,0.8964785374015956,0.6675585491054373,0.0,0.07931975658042725,0.9467946302948769,21.22613065326633
0.43463328017552005,3.2226469674119183,2.432118062064942,2.477192470791744,10.515198610850616,6.543283425452853,26.26406398641321,0.8896151239639698,0.6675619213661463,0.0,0.07988317946657594,0.9474031344886606,21.467336683417084
0.4346321709979289,3.2243941596858003,2.4280644328897747,2.468746009295548,10.531248935132094,6.536083428140685,26.259095039147585,0.882915243087646,0.667564856623458,0.0,0.08043931097256313,0.9480048612324053,21.708542713567837
0.4346310578032411,3.2260586726021727,2.424154634942933,2.460570207544249,10.546575590271743,6.529063153270643,26.253020847259318,0.8763749967590824,0.6675673899828263,0.0,0.0809882597522451,0.9485998617205773,21.94974874371859
0.4346299649230876,3.227644403218191,2.4203835591401064,2.452657160893236,10.561210315623448,6.522220148197762,26.24592708718121,0.8699905808880022,0.667569557487833,0.0,0.08153013273427835,0.9491881886091628,22.190954773869347
0.43462891070621773,3.2291550726688714,2.4167462827437314,2.4449991447702573,10.57518351691789,6.51555185290247,26.237894917202354,0.8637582828990534,0.6675713952543557,0.0,0.08206503513018941,0.9497698958733939,22.4321608040201
0.4346279089399967,3.2305942320461307,2.4132380587609967,2.4375886174569477,10.588524334503374,6.509055619622632,26.229001211854715,0.8576744788135132,0.6675729372825513,0.0,0.08259307042599474,0.9503450386145693,22.673366834170853
0.4346269688379434,3.2319652696464702,2.40985431358154,2.4304182142286384,10.601260668591031,6.502728712601055,26.219318683099534,0.8517356318813402,0.6675742173704278,0.0,0.08311434042279262,0.9509136730180077,22.914572864321606
0.43462609678029207,3.2332714164843375,2.4065906346335186,2.423480751940422,10.613419256407113,6.496568331741709,26.208916138152823,0.8459382893367713,0.6675752660447659,0.0,0.08362894521828781,0.9514758561288552,23.155778894472363
0.4346252958035951,3.2345157533724804,2.403442769856872,2.416769221726664,10.62502568851518,6.4905716093943795,26.197858568739417,0.8402790814000112,0.6675761130819017,0.0,0.08413698325575444,0.9520316458478557,23.396984924623116
0.43462456724524456,3.2357012166598835,2.4004066163030675,2.410276792449883,10.63610448065895,6.484735631148113,26.18620739740704,0.8347547182053727,0.6675767849850105,0.0,0.08463855131196939,0.952581100723771,23.63819095477387
0.4346239102140934,3.236830604511289,2.3974782188961408,2.4039968046184437,10.646679093984705,6.479057435420678,26.174020568251716,0.8293619886992775,0.6675773067967069,0.0,0.08513374453971188,0.9531242799422934,23.87939698492462
0.43462332279367344,3.237906582917666,2.3946537615038594,2.3979227713302445,10.65677199387809,6.47353402837361,26.16135275773521,0.8240977580396881,0.6675777007471587,0.0,0.0856226564698036,0.9536612431644244,24.120603015075375
0.43462280182093527,3.2389316913037325,2.391929563976996,2.3920483741046454,10.666404678659125,6.468162387486818,26.148255485387462,0.8189589661842449,0.6675779870777624,0.0,0.0861053790429458,0.9541920504869413,24.36180904522613
0.43462234351816137,3.2399083482830986,2.3893020759106665,2.386367461473465,10.675597724192478,6.462939470828427,26.134777279083405,0.813942625828396,0.6675781836926971,0.0,0.08658200262517614,0.9547167623354599,24.603015075376884
0.43462194363219897,3.2408388572605324,2.386767872154314,2.380874046167032,10.684370820208395,6.457862223547295,26.12096381029633,0.8090458206931541,0.6675783063827613,0.0,0.08705261603186078,0.9552354393944629,24.844221105527637
0.43462159749895324,3.241725411070949,2.384323649100794,2.375562301929245,10.692742800623204,6.4529275820451275,26.106858006995616,0.8042657040076089,0.6675783690743411,0.0,0.08751730655340331,0.9557481425577913,25.08542713567839
0.4346213005885008,3.2425700984964685,2.3819662184036927,2.370426561915133,10.700731690118653,6.448132484081385,26.09250022730249,0.7995994964058258,0.6675783836765221,0.0,0.08797615997220247,0.9562549328169916,25.326633165829143
0.4346210480899814,3.2433749072167886,2.379692505536553,2.3654613142373853,10.708354720453988,6.443473868206652,26.077928317812013,0.7950444849305405,0.6675783606298827,0.0,0.08842926059556505,0.9567558712670547,25.5678391959799
0.43462083560427733,3.244141730974873,2.3774995428113335,2.3606612006628582,10.715628381556627,6.4389486852755775,26.063177805653073,0.7905980207623166,0.6675783087117093,0.0,0.08887669127099576,0.9572510189772205,25.809045226130653
0.4346206585976603,3.244872371264363,2.3753844687298264,2.3560210121083203,10.722568431682506,6.434553896151693,26.048281929909532,0.7862575184410985,0.6675782354547102,0.0,0.0893185334192263,0.9577404370191566,26.050251256281406
0.43462051304033006,3.2455685448775067,2.373344521158989,2.3515356869531416,10.729189948427937,6.430286482905911,26.033271835746437,0.7820204536046949,0.6675781471508053,0.0,0.08975486705177362,0.9582241863391282,26.29145728643216
0.43462039491604176,3.2462318845699043,2.371377036824049,2.34720030697617,10.735507336007508,6.426143445896444,26.01817659181552,0.7778843622936948,0.6675780489921558,0.0,0.0901857708010804,0.9587023277935179,26.532663316582912
0.4346203006910035,3.246863946656619,2.369479445038823,2.3430100950925272,10.74153437392766,6.422121814018736,26.00302337639167,0.7738468387909259,0.6675779452920818,0.0,0.0906113219415791,0.9591749220326983,26.77386934673367
0.43462022697323927,3.247466211152609,2.367649267062627,2.3389604117660543,10.747284223188514,6.418218641569246,25.987837490520718,0.7699055349363602,0.6675778394394815,0.0,0.09103159641645557,0.959642029534313,27.015075376884422
0.4346201708009999,3.248040088959905,2.3658841104378303,2.335046752337725,10.752769471733203,6.414431017439301,25.97264253033883,0.7660581580979302,0.6675777341887774,0.0,0.09144666886138064,0.9601037105030419,27.256281407035175
0.43462012941158257,3.2485869218568117,2.3641816683164554,2.3312647436949407,10.758002139646601,6.410756061728412,25.957460398083843,0.762302470502955,0.6675776315936321,0.0,0.0918566126290539,0.9605600249008988,27.497487437185928
0.4346201004269533,3.2491079891121104,2.3625397142133533,2.327610141420396,10.76299372185237,6.407190934036991,25.942311461941262,0.7586362873107577,0.6675775332514237,0.0,0.0922614998141987,0.9610110323598883,27.73869346733668
0.43462008165800536,3.2496045071694892,2.3609561015641103,2.3240788266473102,10.767755190863268,6.403732829548851,25.92721455862809,0.755057476023785,0.6675774402458409,0.0,0.0926614012763124,0.9614567922150368,27.979899497487438
0.4346200712725533,3.2500776365380086,2.3594287582688755,2.3206668030447264,10.772297041567445,6.400378987730763,25.912187160816565,0.751563954489156,0.6675773533918151,0.0,0.09305638666615343,0.961897363414199,28.22110552763819
0.43462006759644245,3.250528480332375,2.357955686971034,2.3173701939842433,10.77662928725595,6.397126686798639,25.897245353437665,0.7481536905382908,0.6675772730978695,0.0,0.09344652444560538,0.9623328045662551,28.462311557788944
0.43462006924165236,3.250958091201221,2.356534959658452,2.314185239271795,10.780761504469229,6.393973252141247,25.882404001489338,0.744824699984261,0.6675771996491413,0.0,0.09383188191586396,0.9627631738538488,28.703517587939697
0.4346200749858748,3.2513674702565467,2.3551647175647936,2.311108292623444,10.784702831476709,6.390916051835554,25.86767673602566,0.7415750461807216,0.6675771330447597,0.0,0.09421252523548837,0.9631885290705801,28.94472361809045
0.4346200837950309,3.2517575718940708,2.3538431672339972,2.308135818397558,10.788462000819102,6.387952501445993,25.853076073584706,0.7384028384328523,0.667577073187889,0.0,0.09458851944723778,0.9636089275693466,29.185929648241206
0.4346200948045356,3.252129304939881,2.352568578943384,2.305264389018642,10.792047350390016,6.385080063217839,25.838613452083667,0.7353062311340831,0.6675770198471837,0.0,0.09495992849778802,0.9640244262632669,29.42713567839196
0.4346201072890208,3.2524835349348495,2.3513392844035184,2.3024906820713253,10.795466841346869,6.3822962469296725,25.824299292946723,0.732283422670207,0.667576972688974,0.0,0.09532681526050871,0.9644350816116498,29.668341708542712
0.4346201206540324,3.2528210869201977,2.3501536741679976,2.299811477422746,10.798728078557938,6.379598611569766,25.810143073537777,0.7293326542431361,0.6675769313527196,0.0,0.09568924155826757,0.9648409495977673,29.909547738693465
0.43462013442318015,3.25314274615692,2.349010196354281,2.297223654811094,10.801838318912345,6.376984763917849,25.796153352563977,0.7264522091052668,0.6675768953946165,0.0,0.09604726818167002,0.9652420857352075,30.15075376884422
0.43462014821110045,3.2534492616696746,2.347907353534203,2.294724190652082,10.80480449670293,6.374452361301591,25.782337861070925,0.7236404112105924,0.6675768643959091,0.0,0.09640095491467236,0.9656385450363903,30.391959798994975
0.43462016172715695,3.2537413460701257,2.3468437021376207,2.292310156088832,10.807633225658213,6.371999108970231,25.768703504321056,0.7208956246793182,0.6675768378860222,0.0,0.09675036054885405,0.9660303820296857,30.633165829145728
0.4346201747437426,3.2540196793430067,2.345817849108873,2.2899787136038285,10.810330826386613,6.369622763142667,25.75525646035648,0.7182162523676461,0.6675768154412035,0.0,0.0970955429106442,0.9664176507252802,30.87437185929648
0.43462018710655126,3.2542849079670724,2.3448284518940876,2.287727115531523,10.812903323219633,6.367321127574171,25.742002162304573,0.7156007355355369,0.6675767965981998,0.0,0.09743655887183368,0.9668004046404083,31.115577889447234
0.4346201986916473,3.254537649938448,2.343874214131331,2.2855526999491342,10.815356480342302,6.365092058081009,25.7289454299002,0.713047552083164,0.6675767809878593,0.0,0.09777346438271009,0.9671786967505561,31.356783919597987
0.4346202094370241,3.254778492293585,2.3429538868751028,2.2834528901596274,10.817695787451727,6.362933457242975,25.71609040943448,0.7105552166504259,0.6675767681988024,0.0,0.09810631447476043,0.9675525795329648,31.597989949748744
0.4346202193013679,3.2550079953361415,2.3420662648374497,2.2814251908124596,10.819926490819654,6.360843277720544,25.703440685930133,0.7081222790270391,0.6675767578781941,0.0,0.09843516329153232,0.9679221049288093,31.839195979899497
0.43462022826169266,3.2552266936416374,2.3412101850522,2.2794671857368067,10.822053602316808,6.358819521527398,25.69099931182972,0.7057473233914023,0.667576749723166,0.0,0.09876006410533304,0.9682873243437972,32.08040201005025
0.4346202363469764,3.2554350944767454,2.3403845275241926,2.2775765372771675,10.824081890446484,6.3568602361805855,25.67876876769091,0.7034289682378054,0.667576743392058,0.0,0.09908106932171483,0.9686482886787752,32.321608040201006
0.4346202435633194,3.25563368372576,2.3395882100777046,2.2757509811563814,10.82601592389425,6.354963519814321,25.666751121212165,0.7011658642842743,0.6675767386412371,0.0,0.09939823052016213,0.9690050482738689,32.562814070351756
0.4346202499587312,3.255822922585918,2.338820190477862,2.2739883272000867,10.827860049542197,6.353127515620698,25.654947939199726,0.6989566949373942,0.6675767352120174,0.0,0.09971159844781077,0.9693576529571453,32.80402010050251
0.43462025558055745,3.2560032511177304,2.3380794630337998,2.272286455415345,10.829618419937782,6.351350413931076,25.643360385626785,0.6968001747971884,0.6675767328801243,0.0,0.10002122305003934,0.9697061520170355,33.04522613065326
0.4346202604731756,3.2561750892336887,2.337365057325477,2.2706433139538387,10.831295001892755,6.349630451594319,25.631989248839922,0.6946950489264505,0.6675767314557516,0.0,0.10032715348628386,0.9700505942025758,33.28643216080402
0.43462026470627607,3.25633883567287,2.336676038687676,2.2690569187646052,10.832893569710613,6.347965909448658,25.620834911242817,0.6926400927667395,0.66757673076024,0.0,0.10062943813284843,0.9703910277445906,33.527638190954775
0.4346202683290354,3.256494872018884,2.3360115042123657,2.2675253488257274,10.834417737383012,6.346355114359066,25.609897464654402,0.690634110392454,0.6675767306475765,0.0,0.10092812461953485,0.9707275003252732,33.768844221105525
0.43462027140445353,3.2566435607562365,2.3353705841632415,2.2660467468773717,10.835870944134378,6.344796436190108,25.59917665145276,0.6886759347926814,0.6675767309878787,0.0,0.10122325982457701,0.9710600591073854,34.01005025125628
0.4346202739902835,3.256785247728228,2.334752439331833,2.264619315939284,10.837256474694652,6.343288288319214,25.588671935323323,0.6867644266199083,0.6675767316726426,0.0,0.10151488990127804,0.9713887507202799,34.25125628140703
0.4346202761377953,3.256920262926245,2.334156259953086,2.2632413174850035,10.83857746633414,6.34182912689003,25.57838252264083,0.6848984735336902,0.6675767326124505,0.0,0.10180306029230247,0.9717136212619171,34.49246231155779
0.43462027790632324,3.2570489195177976,2.333581266292569,2.2619110714404345,10.839836901846551,6.340417448844028,25.568307331502684,0.6830769901899978,0.6675767337269443,0.0,0.10208781573052496,0.9720347163172596,34.733668341708544
0.43462027933742475,3.257171517645429,2.333026704688307,2.260626951176287,10.84103764061669,6.339051793163162,25.558445102581757,0.6812989164667024,0.6675767349577417,0.0,0.10236920027662035,0.9723520809327988,34.97487437185929
0.4346202804758597,3.25728834248146,2.3324918491015745,2.259387384647364,10.842182403709568,6.337730738404903,25.5487943389314,0.6795632178398234,0.667576736254181,0.0,0.10264725731176631,0.9726657596430881,35.21608040201005
0.434620281366816,3.2573996652274886,2.331975999837994,2.2581908523626195,10.843273782550039,6.33645290211427,25.539353333525437,0.6778688846531027,0.6675767375728875,0.0,0.10292202955345625,0.9729757964707366,35.4572864321608
0.4346202820400206,3.2575057458384027,2.3314784805646442,2.2570358833527386,10.844314261617084,6.33521694115394,25.53012024868605,0.6762149307065736,0.6675767388826015,0.0,0.10319355908566952,0.9732822349117931,35.698492462311556
0.4346202825324948,3.257606830558508,2.330998640500206,2.255921057284816,10.845306198746341,6.334021549417604,25.521093038671708,0.6746003939230965,0.6675767401589005,0.0,0.10346188734504562,0.973585117964567,35.93969849246231
0.43462028287410853,3.2577031546261845,2.3305358513755308,2.2548450002377445,10.846251848018587,6.332865457890843,25.512269529562513,0.673024334894813,0.6675767413817159,0.0,0.10372705515220491,0.9738844881162927,36.18090452261306
0.4346202830879727,3.2577949428474042,2.3300895065745713,2.253806383159699,10.847153364978995,6.33174743382683,25.503647433967892,0.6714858363196741,0.6675767425339271,0.0,0.10398910272403679,0.9741803873468208,36.42211055276382
0.434620283200954,3.2578824078721778,2.3296590227653473,2.2528039236128334,10.848012792239013,6.33066627946594,25.495224294007052,0.6699840034926291,0.6675767436115091,0.0,0.10424806966303556,0.9744728571485883,36.66331658291457
0.4346202832321001,3.257965753816873,2.329243835704489,2.251836379778633,10.848832090858414,6.329620831703951,25.486997591530102,0.6685179623207661,0.6675767446045797,0.0,0.1045039950006013,0.9747619385091727,36.904522613065325
0.43462028319918417,3.2580451748089736,2.3288434016304955,2.25090255197309,10.84961312804762,6.328609961064885,25.47896469906438,0.6670868597294531,0.6675767455089459,0.0,0.10475691718811911,0.975047671928499,37.14572864321608
0.43462028311742973,3.258120855054568,2.3284571970158363,2.250001282018169,10.850357677881878,6.327632571030562,25.471122878465568,0.6656898633795464,0.6675767463285214,0.0,0.10500687410306492,0.9753300974249597,37.38693467336683
0.43462028299968136,3.258192971200835,2.3280847156449647,2.2491314487647798,10.851067442163265,6.326687597070371,25.463469352004342,0.6643261601872666,0.6675767470622878,0.0,0.10525390308139147,0.9756092545287076,37.62814070351759
0.4346202828566595,3.258261691011744,2.327725469962515,2.2482919697325223,10.851744039025466,6.325774006068603,25.456001257384422,0.6629949567522565,0.6675767477138597,0.0,0.10549804090812379,0.9758851822958271,37.86934673366834
0.4346202826971357,3.258327174115618,2.3273789900188198,2.2474817992987037,10.85238900966122,6.324890795508782,25.448715667923945,0.6616954787093606,0.6675767482889582,0.0,0.10573932383150482,0.9761579193109002,38.11055276381909
0.43462028252794277,3.258389573418445,2.327044821630583,2.2466999257211073,10.853003830851696,6.3240369924952775,25.44160963339983,0.6604269697175589,0.6675767487916403,0.0,0.10597778758498988,0.9764275036863962,38.35175879396985
0.4346202823550506,3.2584490336390526,2.326722527934148,2.245945373186812,10.853589902370441,6.323211653443275,25.434680131473403,0.6591886920136935,0.6675767492285599,0.0,0.1062134673753367,0.976693973076035,38.5929648241206
0.4346202821827945,3.2585056932862444,2.326411686861478,2.245217197774064,10.854148564442971,6.322413862868726,25.427924125698535,0.6579799250714365,0.6675767496052198,0.0,0.10644639791166559,0.9769573646720848,38.834170854271356
0.43462028201431585,3.2585596847320657,2.326111890878104,2.2445144868064206,10.85468109857882,6.321642732709619,25.42133856469266,0.656799965316103,0.6675767499261231,0.0,0.10667661341171668,0.9772177152113322,39.075376884422106
0.4346202818522845,3.258611133117881,2.3258227481568245,2.243836360440045,10.85518871808451,6.320897402168072,25.414920345333957,0.6556481265306526,0.6675767501983447,0.0,0.10690414759324825,0.977475060985321,39.31658291457286
0.434620281698652,3.258660158273378,2.3255438800664363,2.2431819675521067,10.855672585157057,6.320177036291258,25.408666368844344,0.654523738496177,0.6675767504268323,0.0,0.10712903370341421,0.9777294378391294,39.55778894472362
0.43462028155493615,3.2587068748277845,2.3252749208758963,2.242550485062228,10.85613381201711,6.319480825326344,25.40257354114503,0.6534261466955977,0.6675767506147852,0.0,0.10735130452527542,0.9779808811769326,39.79899497487437
0.4346202814215795,3.258751391063274,2.325015519062578,2.2419411198368073,10.856573450788115,6.318807984865863,25.396638734624652,0.6523547128136711,0.6675767507684918,0.0,0.10757099236721475,0.9782294259710236,40.040201005025125
0.4346202812991506,3.2587938106003103,2.3247653350203343,2.2413531048134003,10.85699250868665,6.318157754259368,25.390858836821568,0.6513088134544323,0.6675767508922904,0.0,0.10778812909062715,0.9784751067628187,40.281407035175874
0.4346202811884374,3.258834232608169,2.324524040649474,2.24078569815686,10.857391950014582,6.317529395956089,25.38523075386412,0.6502878397932809,0.6675767509887715,0.0,0.10800274611754403,0.978717957667897,40.52261306532663
0.43462028108876416,3.258872750825503,2.3242913205268305,2.2402381850594635,10.857772687397935,6.316922195859321,25.379751377862508,0.6492911980444295,0.667576751062575,0.0,0.1082148744208117,0.9789580123829211,40.76381909547739
0.4346202809997646,3.2589094548598454,2.3240668700457063,2.23970987446452,10.85813559362641,6.316335461726212,25.374417623307128,0.6483183083627905,0.6675767511173575,0.0,0.10842454454776349,0.9791953041890441,41.00502512562814
0.4346202809215386,3.2589444304804096,2.3238503949010036,2.2392000980539293,10.858481504382013,6.3157685224592655,25.36922643303659,0.6473686044441239,0.6675767511556867,0.0,0.10863178662895974,0.9794298659567193,41.246231155778894
0.43462028085312165,3.2589777588309423,2.323641612064492,2.2387082118191537,10.858811211150396,6.315220728558362,25.364174752244775,0.6464415339268144,0.6675767511805663,0.0,0.10883663036991362,0.9796617301507965,41.48743718592964
0.43462028079368253,3.2590095174228253,2.3234402482942578,2.2382335933424264,10.8591254703222,6.314691450618716,25.359259555017413,0.6455365574613505,0.667576751194632,0.0,0.10903910507106455,0.9798909288353984,41.7286432160804
0.4346202807427312,3.2590397804698674,2.3232460395592445,2.23777564067508,10.859425006305262,6.314180078565669,25.35447785149852,0.6446531482762435,0.6675767512000849,0.0,0.10923923963723622,0.9801174936787912,41.969849246231156
0.4346202806993612,3.2590686181972206,2.3230587319184424,2.237333773796807,10.859710505293831,6.313686022156272,25.34982666545807,0.6437907925534426,0.6675767511987979,0.0,0.10943706257012212,0.9803414559573876,42.211055276381906
0.4346202806627208,3.2590960976554437,2.322878080259817,2.2369074322692444,10.859982622746159,6.313208709598303,25.345303055145934,0.6429489886080639,0.6675767511923527,0.0,0.10963260198579242,0.9805628465612154,42.45226130653266
0.434620280632139,3.2591222830858206,2.322703847678008,2.236496074026291,10.860241986775053,6.3127475867332254,25.340904121256184,0.6421272464254925,0.6675767511820769,0.0,0.10982588562472761,0.9807816959989256,42.69346733668341
0.4346202806068003,3.259147235170623,2.3225358064685593,2.2360991770752014,10.860489191355507,6.312302117727632,25.33662698342577,0.6413250881223899,0.6675767511691729,0.0,0.1100169408427004,0.9809980344008682,42.93467336683417
0.43462028058601054,3.2591710119011554,2.3223737367667727,2.2357162369460166,10.860724804319272,6.311871783540825,25.33246880221062,0.6405420470554307,0.6675767511545319,0.0,0.1102057946296434,0.9812118915252247,43.175879396984925
0.4346202805692837,3.2591936689368155,2.3222174259288004,2.235346765482045,10.860949370695595,6.311456081096241,25.328426786774184,0.6397776673568918,0.6675767511386684,0.0,0.11039247361968832,0.9814232967631502,43.417085427135675
0.4346202805560977,3.259215259079426,2.3220666692224747,2.234990292018461,10.861163407935843,6.311054523748417,25.324498178033625,0.6390315042346351,0.6675767511220778,0.0,0.11057700408547279,0.9816322791417124,43.65829145728643
0.43462028054567803,3.259235832064244,2.321921270066433,2.234646363756632,10.861367404019036,6.310666641350723,25.32068024082129,0.6383031240177527,0.6675767511055584,0.0,0.11075941193774241,0.9818388673272097,43.89949748743718
0.43462028053783813,3.2592554362028237,2.3217810374593753,2.2343145409376297,10.861561832642176,6.31029197735335,25.316970306493992,0.6375921025251454,0.667576751089183,0.0,0.11093972275922698,0.9820430896347367,44.14070351758794
0.4346202805323641,3.2592741173834088,2.3216457874089866,2.233994399407927,10.861747144045607,6.309930090101874,25.31336574342426,0.6368980258160921,0.6675767510731322,0.0,0.1111179617898028,0.9822449740290701,44.381909547738694
0.4346202805285213,3.259291918473046,2.321515343820152,2.233685532263992,10.861923759473914,6.309580553758016,25.309863939593292,0.6362204906589772,0.6675767510577575,0.0,0.11129415391758933,0.9824445481251922,44.62311557788944
0.43462028052620055,3.2593088812133124,2.3213895354284997,2.233387543978356,10.862092088812785,6.309242954558133,25.306462350191975,0.6355591025372433,0.6675767510431894,0.0,0.11146832371995559,0.9826418392015094,44.8643216080402
0.4346202805252232,3.2593250452677776,2.3212681972294402,2.2331000530484384,10.862252521775728,6.308916892313324,25.303158470602728,0.6349134764426055,0.6675767510296222,0.0,0.11164049544799087,0.9828368741991095,45.10552763819095
0.4346202805252949,3.259340448119816,2.3211511706011967,2.232822692207973,10.862405426960521,6.308601980481439,25.299949832362795,0.6342832368819378,0.6675767510170699,0.0,0.11181069302701235,0.9830296797242359,45.346733668341706
0.4346202805261061,3.259355125426615,2.321038302653888,2.232555107113545,10.862551155182365,6.308297845195374,25.296834010028427,0.6336680173693531,0.667576751005501,0.0,0.11197894006738449,0.9832202820544184,45.58793969849246
0.43462028052751434,3.2593691115872625,2.3209294452192633,2.232296954326925,10.862690044811043,6.30800412381611,25.29380863322909,0.6330674596815701,0.667576750995118,0.0,0.11214525988008794,0.9834087071462192,45.82914572864321
0.43462028052933904,3.259382439222031,2.32082445566393,2.2320479028657445,10.862822416919888,6.3077204658855335,25.290871372273628,0.6324812143126866,0.6675767509859953,0.0,0.11230967546822479,0.9835949806348565,46.07035175879397
0.4346202805314934,3.2593951390003486,2.3207231971512066,2.231807634704518,10.862948573677901,6.307446533427966,25.288019932977335,0.6319089405890757,0.6675767509778211,0.0,0.11247220952545278,0.9837791278355007,46.311557788944725
0.4346202805338139,3.2594072407055763,2.3206255367181385,2.2315758408981656,10.863068808383169,6.307181998117554,25.285252078917598,0.6313503052678511,0.6675767509707177,0.0,0.11263288446446017,0.9839611737570294,46.552763819095475
0.43462028053617874,3.259418772619594,2.3205313463019417,2.2313522235990435,10.863183399692883,6.306926542636259,25.2825656159982,0.6308049831700767,0.6675767509646549,0.0,0.11279172240507565,0.9841411430993886,46.79396984924623
0.43462028053855095,3.2594297613225094,2.320440503060297,2.2311364966770744,10.863292609745356,6.306679861069561,25.2799583868828,0.6302726573449902,0.6675767509594853,0.0,0.1129487451718213,0.9843190602542773,47.03517587939698
0.43462028054086443,3.259440232460613,2.320352887936703,2.2309283827985995,10.863396691419794,6.306441656708236,25.27742828578496,0.629753017979022,0.6675767509551193,0.0,0.11310397431602463,0.9844949493170607,47.27638190954774
0.43462028054306967,3.259450210538115,2.320268385986695,2.230727614053293,10.86349588638782,6.306211642437791,25.274973252523672,0.6292457625576053,0.6675767509514552,0.0,0.11325743111336951,0.9846688340876368,47.517587939698494
0.434620280545142,3.2594597188697034,2.3201868864156068,2.230533932000717,10.863590424680716,6.305989540706773,25.272591270042124,0.628750595823161,0.6675767509483811,0.0,0.11340913656546785,0.9848407380730646,47.75879396984924
0.43462028054707336,3.259468779470516,2.320108282732897,2.2303470879537,10.863680523663483,6.30577508367256,25.270280360704476,0.628267229819169,0.6675767509458289,0.0,0.11355911139979884,0.9850106844893526,48.0
