DSB,ATM_active,ATR_active,CHK1_active,CHK2_active,p53_active,p21_active,PARP_active,RAD51_focus,CellCycleArrest,ApoptosisSignal,SurvivalSignal,Time
0.0,0.0,5.0,5.0,2.0,1.9999999999999998,0.0,3.0,0.0,0.0,0.0,0.9,0.0
0.1241686323383049,0.006696503194224392,4.8522108710098655,4.983797714487445,1.8609220531937387,2.5256280004739753,0.4282914980294617,2.9306040765472305,0.008452558144215938,0.0,0.0003974969141470696,0.8989278683021723,0.24120603015075376
0.24082884378691174,0.02583820216052837,4.766731150531704,4.96203628942933,1.7346035088048248,2.95851334133349,0.9263153384566682,2.8668803344633322,0.03216694093141403,0.0,0.0009989135680979055,0.8978838895596972,0.4824120603015075
0.3492354736089408,0.056008508387507164,4.7376339435335835,4.938374035123826,1.622882966596415,3.316865194352347,1.475094490388174,2.8084321607381204,0.06878186961918253,0.0,0.0017869276359908663,0.8968729737286986,0.7236180904522613
0.4482329972041302,0.09575400451105244,4.758740195246115,4.915915942908302,1.5271375519799197,3.6159746948197893,2.059691910500371,2.7548398195387285,0.1160102817395018,0.0,0.002744743821137469,0.8959022803269281,0.964824120603015
0.5365446992316212,0.14355836976426042,4.823503175741409,4.8972279490703805,1.4483028569943075,3.86861969853007,2.668510273338486,2.705652227844007,0.171598187105706,0.0,0.003855461859607982,0.8949797769593292,1.2060301507537687
0.613030383386914,0.19784660394982911,4.9250270623760235,4.884347772584388,1.3868890838381287,4.0853983843021435,3.292693855695778,2.6603880824064583,0.23332350944417923,0.0,0.0051017897262343815,0.8941128720929327,1.4472361809045227
0.6768956945362411,0.2570139533732371,5.056196220097945,4.878799429951506,1.343000076689335,4.275010299355424,3.9256161769546907,2.618544803439716,0.29902622093348796,0.0,0.006466079501536268,0.8933072348446904,1.6884422110552764
0.7278335642438108,0.31947219025502793,5.209883601154491,4.881616577104836,1.3163599600191678,4.44449982414958,4.5624409550905725,2.57961316266525,0.3666593001568783,0.0,0.007930629700050288,0.8925659357713991,1.92964824120603
0.766085006587749,0.3837044521728469,5.379199796562137,4.893377535635182,1.306349871905096,4.599473338721103,5.1997469485929395,2.5430949496909245,0.43434870821555294,0.0,0.009478165965739553,0.8918890100394334,2.170854271356784
0.7924189931943625,0.44831956043578236,5.5577424937832065,4.914252453976448,1.3120550010887067,4.74429766510929,5.835209506408026,2.508520871882396,0.5004507247873906,0.0,0.01109239411135024,0.8912734730020981,2.4120603015075375
0.8080447386627412,0.5120978657604235,5.739810658196086,4.944060870750267,1.3323201180416746,4.882284023206815,6.467333089198037,2.475466169984774,0.5635968794738883,0.0,0.012758521359714137,0.8907137344202918,2.6532663316582914
0.8144799012716573,0.5740230507607336,5.920557989271591,4.98233630677593,1.3658103220473097,5.015859043940762,7.0952297998278295,2.4435621226524264,0.6227200795440282,0.0,0.014463663153182173,0.8902022897222213,2.8944723618090453
0.8134020246265606,0.6332973357030908,6.096073422451282,5.0283936541710625,1.4110730137354333,5.1467225407705,7.718439315961397,2.412502523837501,0.677059542499975,0.0,0.016197087019479087,0.8897305352856623,3.135678391959799
0.8065079669174939,0.6893404619365873,6.263389436881735,5.081395069693987,1.4665971413934489,5.275990817596174,8.336785669547732,2.3820451230350423,0.726145866782441,0.0,0.017950281682753193,0.8892895627251851,3.3768844221105527
0.7953989675294882,0.7417750643050549,6.420428983574091,5.140410660179076,1.5308663961469058,5.404324123077967,8.950266315273282,2.352008728615716,0.7697702855133323,0.0,0.019716869915975276,0.8888708246319346,3.618090452261306
0.7815000731435442,0.7904023694074334,6.56590794909271,5.204471293683059,1.6024040760836946,5.532037341440881,9.558968811151043,2.3222671150204017,0.8079436027021186,0.0,0.021492403394173833,0.8884666149171543,3.85929648241206
0.7660148040013625,0.8351723953812933,6.699211366563646,5.272612010830585,1.6798084356211358,5.659193654292617,10.163010673518963,2.2927409811630213,0.8408503702062532,0.0,0.023274084054394385,0.8880703530949694,4.100502512562814
0.7499103249755034,0.8761524399661946,6.820260082354142,5.343905599858155,1.7617783656339994,5.785681699821111,10.762498127128387,2.263389117563232,0.8688031367237683,0.0,0.025060454297315824,0.8876766955686206,4.341708542713568
0.7339255634814155,0.9134967776915782,6.92938092085396,5.4174867669766265,1.8471300461791313,5.911277404149984,11.357499852517229,2.234199695942699,0.8922003189285799,0.0,0.02685108979310563,0.8872815146054547,4.582914572864321
0.718594201652247,0.9474195108313223,7.027189174136657,5.492567908811379,1.9348057215553571,6.035692096575067,11.948032297749902,2.205182308842184,0.9114898889964871,0.0,0.028646318144165822,0.8868817897064974,4.824120603015075
0.7042753839566093,0.9781715964665775,7.114488221633688,5.568447846037597,2.0238760381294436,6.158608818685507,12.534053576324698,2.1763611111535606,0.9271398354271663,0.0,0.03044697645402848,0.8864754516010936,5.065326633165829
0.6911867266656028,1.006022385671427,7.192188048248734,5.644514920540628,2.1135373858081157,6.279708701214964,13.115463543860443,2.1477692044015724,0.9396154835542668,0.0,0.032254213029971175,0.8860612095825419,5.306532663316583
0.6794359314823498,1.0312454618235791,7.261241998105536,5.720245881126876,2.203105663590411,6.398689337951776,13.692108026044604,2.1194442355282317,0.9493630716458415,0.0,0.0340693322572661,0.8856383834521787,5.547738693467337
0.6690488974665696,1.0541083424278845,7.322600064903431,5.795201738849814,2.292007631761365,6.515276750981639,14.263785698911068,2.091425106617433,0.9567987569205919,0.0,0.035893678926215894,0.8852067523851839,5.788944723618091
0.6599934016761801,1.0748653957793666,7.377176053095068,5.869021663145296,2.379770876286495,6.629232483742297,14.830256399068759,2.063749623344493,0.9623019894207488,0.0,0.0377285558394865,0.8847664264798036,6.030150753768844
0.6521981939408568,1.0937533638999135,7.425826067804352,5.941415715527705,2.466013137613777,6.740356998754038,15.391250018527073,2.0364529151010404,0.9662123071598838,0.0,0.039575168726253614,0.8843177423149297,6.271356783919598
0.6455678487772224,1.1109888834512835,7.469335762401135,6.012157063445457,2.5504315915117677,6.848490411648342,15.94647535049505,2.0095664558748467,0.9688286462067439,0.0,0.041434592372630565,0.883861181022309,6.5125628140703515
0.6399939297423629,1.1267674972267423,7.508414183120862,6.081074128097655,2.6327924845305355,6.953511348048494,16.49562846915019,1.9831175412188689,0.970410431184584,0.0,0.04330775282848932,0.88339730610783,6.7537688442211055
0.6353631060236244,1.1412637275119744,7.543692373642999,6.14804298950278,2.712921396537372,7.055334552546739,17.038400370954992,1.957129097593445,0.9711798425136934,0.0,0.04519542130507708,0.8829267177228184,6.994974874371859
0.6315628530591377,1.1546318688701744,7.575725262330443,6.212980255869684,2.7906942885800086,7.15390773020097,17.57448372866768,1.9316197240106145,0.9713247931802654,0.0,0.04709821622328239,0.8824500200700073,7.236180904522612
0.6284852695251845,1.1670072459995324,7.604995729815249,6.2758365237914315,2.8660294215488755,7.24920797017757,18.10357868507534,1.9066038910140133,0.9710022763561519,0.0,0.04901661076363103,0.8819677991268658,7.477386934673366
0.6260294877819292,1.178507736240601,7.631919981105444,6.336590490941925,2.9388801666053586,7.341238019089361,18.62539768193512,1.88209223702395,0.9703418287834426,0.0,0.05095094380012584,0.881480608137911,7.71859296482412
0.6241030557126382,1.1892354170327835,7.656853605428713,6.395243731746812,3.009228681898325,7.430022585175842,19.1396693673809,1.8580919194744443,0.9694489423382517,0.0,0.052901432716791805,0.8809889588448259,7.959798994974874
0.6226225600314207,1.1992782420152535,7.680097897619535,6.4518161359017885,3.077080429094588,7.515604799720491,19.64614162536086,1.8346069912620113,0.9684083108879367,0.0,0.05486818706568423,0.8804933169979222,8.201005025125628
0.6215137388986995,1.2087116725646525,7.701906108765669,6.506341967521116,3.142459457039229,7.598042922514636,20.144583819954466,1.8116387790806752,0.9672868396565232,0.0,0.05685122224047048,0.8799941007986279,8.442211055276381
0.6207112499538541,1.2176002271444,7.7224894481160264,6.558866486126442,3.2054043689088534,7.677407327946643,20.63478835608618,1.7891862507189147,0.9661363912142209,0.0,0.05885047271202696,0.879491681360606,8.683417085427136
0.6201581955843325,1.225998917650812,7.7420226967992125,6.609443111118195,3.2659649419180266,7.753777811736095,21.11657160494685,1.7672463615083516,0.9649962382349057,0.0,0.06086580447778682,0.8789863846338616,8.924623115577889
0.6198055199197782,1.2339545593981622,7.7606493584309835,6.658131048838337,3.3241992950256023,7.827241215933528,21.589774316976296,1.7458143738959044,0.9638952322891018,0.0,0.06289702651564032,0.8784784941495005,9.165829145728642
0.6196113347109474,1.2415069541841555,7.778486332875659,6.704993324052745,3.3801715321002375,7.897889357931339,22.054261608582316,1.724884148584537,0.9628537059671256,0.0,0.0649439011905941,0.8779682542606655,9.407035175879397
0.6195402121420518,1.248689942295191,7.7956280891774625,6.750095184499226,3.433949820831521,7.965817261652056,22.509922577127373,1.704448405275357,0.9618851134575813,0.0,0.06700615354487545,0.8774558736650571,9.64824120603015
0.6195624813933409,1.2555323303322543,7.812150356175443,6.793502818435016,3.4856048345591666,8.031121664017567,22.956669627988823,1.684498953658578,0.9609974359274042,0.0,0.06908347949838439,0.8769415289922277,9.889447236180905
0.6196535519131738,1.2620586990752605,7.828113342162842,6.835282345923237,3.535208509857857,8.09389977921319,23.39443757393968,1.6650268950392038,0.9601943687770489,0.0,0.0711755529758241,0.87642536832016,10.130653266331658
0.6197932722494944,1.2682901101630462,7.843564554360928,6.875499023257232,3.5828330492794906,8.154248274713344,23.82318257773656,1.646022798827826,0.9594763306464235,0.0,0.07328203211595934,0.8759075145563688,10.37185929648241
0.6199653350756809,1.2742447075692727,7.858541200120247,6.91421665565564,3.628550163265789,8.212262462674474,24.24288095912333,1.6274768526271524,0.95884129138849,0.0,0.07540256451735784,0.8753880686234101,10.613065326633166
0.6201567309958321,1.2799382344924592,7.873072249125298,6.951497160691664,3.672430484744311,8.268035658315343,24.653527927847797,1.6093789907544775,0.9582854598892367,0.0,0.07753679169885323,0.8748671124181694,10.854271356783919
0.6203572568836144,1.2853844667858125,7.887180159720367,6.987400270236982,3.7145431425812365,8.321658698474112,25.055136268396318,1.59171900130922,0.9578038369550578,0.0,0.07968435277995023,0.8743447115093833,11.095477386934673
0.6205590742865454,1.290595578994046,7.900882332737419,7.0219833342636075,3.7549554522841198,8.373219584480488,25.447735011466442,1.5744866157523045,0.9573906625388706,0.0,0.08184488752651435,0.8738209175868891,11.336683417085426
0.6207563137287548,1.2955824531642943,7.914192333171779,7.055301205576531,3.79373270027567,8.422803227495544,25.831368109177806,1.5576715835436712,0.9570397750767613,0.0,0.0840180388550152,0.8732957706787596,11.577889447236181
0.6209447319778293,1.3003549267661658,7.927120864194297,7.0874062037579195,3.830938020329487,8.470491299036958,26.206093133128753,1.5412637307890564,0.9567448795888578,0.0,0.08620345475849953,0.8727693010958151,11.819095477386934
0.6211214130572488,1.3049219962364071,7.939676559764768,7.11834812825729,3.866632328212473,8.516362152928636,26.57198001409625,1.5252530071164494,0.9564997521454456,0.0,0.08840078980925653,0.8722415311453999,12.060301507537687
0.6212845085713048,1.3092919837274888,7.951866626390539,7.148174306999975,3.9008742994404404,8.560490802761974,26.92910983336798,1.5096295227363845,0.9562983933294079,0.0,0.09060970631005931,0.8717124766343533,12.301507537688442
0.6214330139284302,1.313472671568689,7.9636973524427,7.1769296736429835,3.9337203825918308,8.602948945981723,27.277573668773083,1.4943835768766713,0.9561351378055282,0.0,0.0928298751372968,0.8711821481774147,12.542713567839195
0.6215665815534089,1.3174714053103667,7.975174488529287,7.2046568691177,3.9652248438391835,8.643805030621202,27.617471506508995,1.4795056778062383,0.956004722400741,0.0,0.09506097628518684,0.8706505523030339,12.78391959798995
0.6216853625254323,1.3212951753150692,7.986303539496249,7.231396354394271,3.9954398277757015,8.683124347045128,27.948911216969837,1.464986557075046,0.955902327683131,0.0,0.09730269920682777,0.8701176924004582,13.025125628140703
0.6217898748748929,1.3249506795677441,7.997089979048303,7.257186529908122,4.024415429739149,8.720969138904545,28.272007599046585,1.4508171786845476,0.9558235974376974,0.0,0.09955474297871905,0.8695835695160451,13.266331658291456
0.6218808957866299,1.3284443703085016,8.007539397872083,7.282063858930581,4.052199776676006,8.75739872885047,28.586881491759552,1.4369887439061766,0.9557646397452615,0.0,0.10181681631497787,0.8690481830132635,13.507537688442211
0.6219593745277225,1.3317824878860505,8.017657599281979,7.306062990770092,4.078839111994613,8.792469652986997,28.893658952819454,1.4234926926656846,0.9557220146839047,0.0,0.10408863746505985,0.8685115311130291,13.748743718592964
0.6220263612827548,1.3349710858787465,8.027450659097047,7.329216880687911,4.104377880560238,8.826235798392686,29.192470496726397,1.4103207025904878,0.9556927140143122,0.0,0.10636993403427958,0.867973611340538,13.989949748743719
0.6220829532334904,1.33801604708885,8.036924948330427,7.351556905103664,4.128858812933381,8.858748542519265,29.483450401582655,1.3974646856351431,0.9556741329568992,0.0,0.10866044272549522,0.8674344208702044,14.231155778894472
0.6221302531462433,1.3409230937875012,8.046087132722448,7.373112970662311,4.152323006755198,8.89005689061498,29.766736074487042,1.3849167832126292,0.9556640381406638,0.0,0.11095990903482764,0.8668939567955499,14.472361809045225
0.6221693375598893,1.3436977942199775,8.054944157525066,7.393913616402375,4.174810004152494,8.920207608909235,30.042467469487104,1.3726693603905753,0.9556605341281411,0.0,0.11326808692127635,0.866352216340526,14.71356783919598
0.6222012337959092,1.3463455659878025,8.063503220231569,7.413986108456761,4.196357864644507,8.94924535243539,30.310786558535384,1.3607149993386598,0.9556620293908027,0.0,0.11558473845727447,0.8658091970164107,14.954773869346733
0.6222269036640894,1.348871677274419,8.07177173523324,7.433356528249806,4.217003234050776,8.977212787665545,30.571836846545043,1.349046492289808,0.9556672024167272,0.0,0.11790963346854601,0.8652648967370038,15.195979899497488
0.6222472339486876,1.3512812462287653,8.079757291946226,7.452049852858831,4.236781408420107,9.004150708259093,30.82576293638513,1.3376568341311523,0.9556749687879563,0.0,0.1202425491686692,0.864719313891054,15.43718592964824
0.622263031605219,1.3535792395845596,8.087467610919362,7.4700900280009215,4.255726393081419,9.030098143491704,31.072710136944586,1.326539214926376,0.9556844502134546,0.0,0.12258326979854571,0.8641724473843205,15.678391959798994
0.6222750220879003,1.3557704712021281,8.094910500791311,7.4875000343874465,4.2738709572412645,9.055092459494537,31.312824107991876,1.3156870125622186,0.9556949459889679,0.0,0.12493158627697992,0.8636242966608557,15.919597989949748
0.622283850072965,1.3578596007596897,8.102093817078437,7.504301948008626,4.29124668454215,9.079169453598016,31.546250538644856,1.3050937855882998,0.9557059069338407,0.0,0.12728729586445692,0.8630748617080137,16.160804020100503
0.6222900823195101,1.3598511326778324,8.10902542326875,7.520516994382282,4.307884019663621,9.102363441613953,31.773134859776384,1.2947532662913055,0.9557169119017223,0.0,0.12965020184177248,0.8625241430467124,16.402010050251256
0.622294211899166,1.3617494153637142,8.115713154405384,7.5361655980557245,4.323812311831982,9.124707339348646,31.99362198316908,1.284659354006551,0.955727646476775,0.0,0.13202011320238616,0.8619721417120044,16.64321608040201
0.6222966634902051,1.3635586410268745,8.122164784471384,7.551267426819978,4.339059854890227,9.146232737395016,32.20785607025377,1.2748061087720142,0.9557378843522638,0.0,0.13439684436309268,0.8614188592255995,16.884422110552762
0.6222977988752308,1.365282845867375,8.128387996076269,7.565841433532161,4.353653925835483,9.166969972681148,32.41598031440705,1.2651877451847027,0.9557474700603604,0.0,0.13678021488479952,0.8608642975664855,17.125628140703515
0.6222979238435146,1.3669259112804828,8.134390356810966,7.57990588947185,4.367620817894625,9.186948189012963,32.6181367711502,1.255798626856885,0.9557563061287948,0.0,0.13917004922466292,0.8603084591305733,17.366834170854272
0.6222972938533484,1.3684915655874421,8.140179298415658,7.593478417469846,4.38098587356771,9.20619539637121,32.81446619072785,1.2466332611070323,0.9557643409692722,0.0,0.1415661764976556,0.859751346697937,17.608040201005025
0.622296119727053,1.36998338617196,8.145762098798128,7.606576022276967,4.393773515997158,9.224738526195708,33.00510786807334,1.2376862939211704,0.9557715583411052,0.0,0.1439684302515859,0.859192963399166,17.849246231155778
0.6222945732460923,1.371404802192351,8.151145867920071,7.619215117497217,4.406007278226527,9.24260348159551,33.19019951416911,1.2289525052747483,0.9557779688536445,0.0,0.1463766482597741,0.8586333126814488,18.09045226130653
0.6222927922482393,1.3727590978280502,8.156337537391034,7.631411549838196,4.417709830871472,9.259815183199946,33.36987714550674,1.2204268048099607,0.9557836031975062,0.0,0.14879067233061505,0.8580723982771152,18.331658291457284
0.6222908859076559,1.3740494152472564,8.161343848143733,7.64318062486715,4.428903010699814,9.276397617365427,33.54427496371197,1.2121042273305018,0.9557885044385726,0.0,0.15121034810837844,0.8575102241714063,18.57286432160804
0.6222889382868476,1.375278759462316,8.166171351857258,7.654537122314471,4.439607842984454,9.292373867447651,33.71352530669745,1.2039799296484301,0.9557927268510334,0.0,0.15363552493908367,0.8569467945787044,18.814070351758794
0.6222870142753839,1.3764500004474909,8.1708263925844,7.665495326530325,4.449844572888898,9.307766169489117,33.87775849674166,1.1960491854925899,0.9557963252875648,0.0,0.15606605564302173,0.8563821139072939,19.055276381909547
0.6222851601168145,1.3775658803321964,8.175315126158658,7.6760690289430435,4.45963268025405,9.322595921668107,34.037102884196074,1.1883073841812068,0.9557993622006301,0.0,0.15850179646788032,0.8558161867519255,19.2964824120603
0.6222834099990442,1.3786290149740876,8.179643497950954,7.686271561140549,4.46899091251284,9.33688374441769,34.19168467716653,1.1807500251533258,0.9558018952770347,0.0,0.16094260684338466,0.8552490178550534,19.537688442211053
0.6222817850190631,1.3796419011116048,8.183817264445938,7.696115796682313,4.477937299177527,9.350649487012756,34.3416279990274,1.1733727169962556,0.95580398494911,0.0,0.16338834935092192,0.854680612109649,19.77889447236181
0.6222802984613843,1.3806069190874461,8.187841980276666,7.705614176943515,4.486489180379592,9.363912275683585,34.48705476963214,1.1661711729400097,0.9558056864367528,0.0,0.16583888952476528,0.8541109745271438,20.020100502512562
0.6222789558281818,1.3815263385073193,8.19172301005175,7.714778720077561,4.494663225554636,9.376690531460016,34.62808471644962,1.159141208988168,0.9558070526272212,0.0,0.1682940957788767,0.8535401102353505,20.261306532663315
0.6222777570130257,1.382402322189782,8.195465528925173,7.723621036724228,4.502475455742466,9.389001999668755,34.764835337869,1.1522787410072055,0.9558081321405131,0.0,0.17075383928526597,0.8529680244644408,20.50251256281407
0.6222766985736519,1.3832369309600774,8.199074525405601,7.7321523452497285,4.509941266003571,9.400863779581572,34.897421862367686,1.1455797818157694,0.9558089683325909,0.0,0.17321799385085188,0.8523947225316559,20.74371859296482
0.6222757727335122,1.384032127772966,8.202554811567017,7.740383479359046,4.517075442219941,9.412292337522468,35.02595728695945,1.1390404397067087,0.955809601549856,0.0,0.17568643586617486,0.8518202098467827,20.984924623115578
0.6222749721433128,1.3847897826364526,8.205911018833921,7.748324909853062,4.523892188151708,9.423303549876932,35.15055227434715,1.1326569143839316,0.9558100650138461,0.0,0.17815904412509767,0.8512444918814263,21.22613065326633
0.6222742854994037,1.3855116759294794,8.209147615991144,7.755986743608992,4.530405135408728,9.433912697864383,35.27131527694825,1.1264254970560503,0.9558103906249924,0.0,0.18063569985257144,0.8506675741960683,21.467336683417084
0.6222737040726011,1.3861995039678339,8.212268901522144,7.76337874977468,4.536627374333964,9.444134520188578,35.38835238930578,1.1203425655484687,0.9558106032397826,0.0,0.1831162864824881,0.8500894623978235,21.708542713567837
0.6222732157706242,1.3868548809061034,8.215279021927179,7.770510355655572,4.542571460234642,9.453983199898385,35.501767509115,1.11440458507768,0.95581072672867,0.0,0.185600689720911,0.8495101621782781,21.94974874371859
0.6222728113663412,1.3874793452074468,8.218181967799122,7.7773906713429115,4.548249444222839,9.463472414954536,35.61166219925212,1.10860810354043,0.9558107798455991,0.0,0.18808879733172457,0.8489296792724029,22.190954773869347
0.6222724800269919,1.3880743603904553,8.220981584874188,7.784028489362211,4.553672880588468,9.472615331811987,35.71813581690248,1.1029497516796078,0.9558107793014611,0.0,0.19058049917108452,0.8483480194878117,22.4321608040201
0.6222722124782891,1.3886413212408537,8.223681577905207,7.790432302213043,4.558852852635859,9.481424640928715,35.821285446633475,1.0974262396943286,0.9558107389865774,0.0,0.1930756870388405,0.8477651886831602,22.673366834170853
0.6222719996454631,1.3891815549460602,8.226285514839756,7.796610308068003,4.563799984229875,9.48991256394369,35.92120596354975,1.092034356185141,0.9558106702365132,0.0,0.19557425465226635,0.8471811927772984,22.914572864321606
0.6222718333342262,1.3896963258297952,8.22879683347433,7.802570423012119,4.568524460470697,9.498090876614826,36.017990026065405,1.0867709658482383,0.9558105823782295,0.0,0.19807609755293962,0.8465960377441765,23.155778894472363
0.622271706176963,1.3901868376110653,8.231218845339669,7.808320289028509,4.573036041773275,9.50597092213178,36.11172810812381,1.081633007892257,0.9558104828228644,0.0,0.20058111305299448,0.8460097296130921,23.396984924623116
0.622271611575123,1.3906542364796393,8.23355474073415,7.8138672835723195,4.577344080545058,9.513563627581227,36.20250852055829,1.0766174942357274,0.9558103772960282,0.0,0.20308920016920878,0.8454222744688589,23.63819095477387
0.6222715437080665,1.391099613816418,8.235807593492504,7.81921852777976,4.581457535736982,9.520879518107924,36.29041743741845,1.0717215078728564,0.9558102702307913,0.0,0.20560025956584912,0.8448336784514787,23.87939698492462
0.6222714974529722,1.3915240087909078,8.23798036536852,7.824380895152786,4.585384988098838,9.527928731561744,36.37553892411368,1.066942201197793,0.9558101649120175,0.0,0.20811419349583027,0.8442439477565271,24.120603015075375
0.6222714690042535,1.3919284133620113,8.240075912741284,7.829361025109409,4.589134662787262,9.534721043591116,36.45795492547738,1.062276793541159,0.9558100637915804,0.0,0.2106309056994418,0.8436530886305534,24.36180904522613
0.6222714540536846,1.3923137679877011,8.242096984224563,7.834165316635103,4.592714421019449,9.541265851153138,36.53774539947784,1.0577225718694103,0.9558099683495744,0.0,0.21315030147197184,0.8430611073838261,24.603015075376884
0.62227144997103,1.3926809732098897,8.244046234289268,7.838799955813341,4.5961318051093825,9.54757222661174,36.61498820940256,1.0532768861052049,0.9558098798903512,0.0,0.21567228744440392,0.8424680103745469,24.844221105527637
0.6222714542484385,1.3930308852619535,8.245926219996196,7.843270909654952,4.5993940295791855,9.553648901822166,36.68975924988425,1.0489371497827025,0.9558097991105746,0.0,0.21819677164852447,0.8418738040198275,25.08542713567839
0.6222714644066464,1.3933643174015733,8.2477394034786,7.847583932161727,4.602507991558263,9.559504277716501,36.762132485826065,1.0447008387571266,0.9558097259977989,0.0,0.22072366347826125,0.8412784947962383,25.326633165829143
0.6222714788306678,1.3936820487750918,8.249488164469843,7.851744585194124,4.605480306915049,9.565146464068404,36.83217990436354,1.0405654876286372,0.9558096610667431,0.0,0.2232528735294851,0.8406820892333969,25.5678391959799
0.6222714960370556,1.3939848175171754,8.251174791257384,7.855758228034376,4.608317291373017,9.570583256142383,36.89997163976478,1.0365286909482851,0.9558096037410608,0.0,0.22578431369312904,0.8400845939193718,25.809045226130653
0.6222715147765873,1.3942733289816893,8.252801493596278,7.859630036987118,4.61102499575881,9.575822170956993,36.965575949478946,1.0325880999102277,0.9558095537763086,0.0,0.22831789701035318,0.8394860154995027,26.050251256281406
0.6222715340297282,1.394548255795421,8.254370403171327,7.863365008576414,4.61360921103404,9.580870451570926,37.02905926137354,1.028741421469177,0.9558095109363802,0.0,0.23085353765471628,0.8388863606763056,26.29145728643216
0.6222715532410511,1.3948102358748382,8.255883570660249,7.866967958072921,4.616075464335308,9.585735062927245,37.09048623041271,1.0249864181156745,0.9558094742888057,0.0,0.233391150947529,0.8382856362076636,26.532663316582912
0.622271571739943,1.3950598803369665,8.25734297896296,7.870443539810361,4.618429056567117,9.59042272788825,37.14991973831302,1.021320904544985,0.9558094434605395,0.0,0.23593065321485462,0.8376838489107294,26.77386934673367
0.622271589185989,1.39529776956271,8.25875053723265,7.873796240435373,4.620675048434989,9.594939913815542,37.20742095547675,1.017742748189167,0.9558094177796282,0.0,0.2384719618399126,0.8370810056584961,27.015075376884422
0.6222716053990225,1.395524456526192,8.260108086519459,7.877030389323224,4.622818279080004,9.59929285030853,37.2630493674188,1.0142498672906206,0.9558093965632589,0.0,0.24101499519193637,0.836477113380846,27.256281407035175
0.6222716202178812,1.395740469876352,8.261417404943494,7.880150168631518,4.624863383974496,9.603487546212811,37.31686280322126,1.0108402290248346,0.9558093793037753,0.0,0.24355967255776997,0.8358721790654223,27.497487437185928
0.6222716336188863,1.3959463100798992,8.262680202661954,7.883159604908559,4.626814778338553,9.60752977354536,37.368917488882076,1.0075118503563316,0.9558093653366208,0.0,0.24610591420742703,0.8352662097563045,27.73869346733668
0.6222716456061828,1.3961424574735537,8.263898134029494,7.886062592871112,4.628676700525103,9.61142510917534,37.41926806097182,1.004262794072053,0.9558093542552191,0.0,0.2486536412244561,0.8346592125549557,27.979899497487438
0.6222716562251169,1.3963293690789786,8.265072793633578,7.88886288858451,4.630453198382287,9.615178921571427,37.467967615005556,1.0010911694318552,0.955809345669468,0.0,0.25120277556071613,0.8340511946196496,28.22110552763819
0.6222716655773516,1.396507477723962,8.266205715459964,7.8915641088891615,4.632148127049539,9.618796368856568,37.51506774191007,0.9979951318941878,0.9558093390390687,0.0,0.25375324004535293,0.8334421631649845,28.462311557788944
0.6222716736965622,1.3966771995199325,8.267298384581146,7.894169753787446,4.633765190199164,9.622282437787511,37.5606185550886,0.9949728793079451,0.9558093341661894,0.0,0.25630495822504373,0.8328321254629879,28.703517587939697
0.6222716806637385,1.3968389295468948,8.268352231129347,7.896683196281289,4.635307919663469,9.625641924829413,37.60466872891632,0.992022653110843,0.95580933077687,0.0,0.25885785444290355,0.83222108884164,28.94472361809045
0.6222716866464181,1.3969930426334103,8.269368631859175,7.899107686184662,4.636779681453112,9.628879442171623,37.64726553013946,0.9891427373813709,0.9558093284922753,0.0,0.26141185381465903,0.831609060684293,29.185929648241206
0.6222716916408015,1.3971398988288293,8.270348919232458,7.901446367535487,4.638183707979184,9.631999447349227,37.68845486058335,0.9863314557761426,0.9558093271909527,0.0,0.26396688210704844,0.8309960484317334,29.42713567839196
0.6222716957634881,1.3972798394564945,8.271294375525953,7.903702268442728,4.639523077309788,9.635006225041078,37.72828127611444,0.9835871727651092,0.9558093266631051,0.0,0.26652286581453444,0.8303820595792565,29.668341708542712
0.6222716991577112,1.397413189453604,8.272206236971567,7.905878309638757,4.640800728383846,9.637903901178053,37.766788025725184,0.9809082919384133,0.9558093266982384,0.0,0.2690797321017911,0.8297671016772532,29.909547738693465
0.6222717018521369,1.397540260144093,8.273085698628067,7.907977314664136,4.642019479379632,9.640696459714183,37.80401709678854,0.9782932540446273,0.9558093271588235,0.0,0.27163740873485986,0.8291511823322435,30.15075376884422
0.6222717039678557,1.3976613464094159,8.273933910251975,7.91000200156922,4.643182010659252,9.643387728162782,37.84000921859852,0.9757405380122031,0.955809327928075,0.0,0.2741958241438914,0.8285343092045014,30.391959798994975
0.622271705599942,1.397776730035988,8.274751982025798,7.911954995599811,4.644290887787596,9.645981398463105,37.8748039190081,0.973248658545309,0.9558093288931799,0.0,0.27675490733625746,0.8279164900090747,30.633165829145728
0.6222717068249446,1.397886680321801,8.275540985933237,7.913838832380142,4.6453485664472405,9.648481031887615,37.90843955526076,0.9708161652828574,0.9558093299454509,0.0,0.27931458787749774,0.8272977325154132,30.87437185929648
0.6222717077142588,1.397991451912389,8.276301952790092,7.9156559510528135,4.646357378460046,9.650890047102022,37.94095331167764,0.9684416436741854,0.955809331050714,0.0,0.2818747959451092,0.8266780445464487,31.115577889447234
0.6222717083399439,1.398091289327291,8.277035879763337,7.917408711686687,4.647319563450096,9.653211748936062,37.97238127769529,0.9661237117033002,0.9558093321486902,0.0,0.2844354622062482,0.8260574339789506,31.356783919597987
0.6222717087625307,1.3981864253318246,8.277743728232778,7.919099390302751,4.64823725846505,9.655449319606971,38.00275845034642,0.9638610204584754,0.9558093332071844,0.0,0.28699651785812885,0.8254359087428866,31.597989949748744
0.6222717090239415,1.3982770799894921,8.278426422588023,7.920730176409108,4.6491124923522165,9.657605814183137,38.032118741852145,0.9616522542993091,0.9558093342011433,0.0,0.28955789465043646,0.824813476820855,31.839195979899497
0.6222717091603743,1.3983634652537649,8.27908485812287,7.922303190608254,4.649947217684021,9.65968418962701,38.06049506587943,0.9594961274803633,0.9558093351288615,0.0,0.29211952476091274,0.824190146248433,32.08040201005025
0.6222717091928065,1.3984457828058237,8.27971989786094,7.923820477709202,4.650743296851976,9.661687292861139,38.08791932834006,0.9573913850932635,0.9558093359963974,0.0,0.2946813408500386,0.8235659251133945,32.321608040201006
0.622271709166732,1.3985242226330163,8.280332370397321,7.925284002268696,4.6515024927648625,9.663617853076685,38.114422421224155,0.9553368036142845,0.9558093367805758,0.0,0.2972432760976595,0.8229408215546332,32.562814070351756
0.6222717090824714,1.398598968364033,8.2809230793735,7.926695669361434,4.652226506583614,9.665478515741691,38.140034332939514,0.9533311869084807,0.955809337495108,0.0,0.29980526405597785,0.8223148437633959,32.80402010050251
0.6222717089407171,1.3986701946523203,8.281492799318828,7.928057315733585,4.652916960222431,9.667271827607056,38.1647841236933,0.9513733675579479,0.9558093381425938,0.0,0.30236723871819843,0.8216879999819179,33.04522613065326
0.6222717087795593,1.3987380657278419,8.28204227334446,7.92937070465361,4.653575385976274,9.669000228074697,38.18869990874315,0.9494622075833802,0.9558093387280773,0.0,0.304929134559959,0.8210602985022691,33.28643216080402
0.6222717085947194,1.398802740469594,8.282572222416652,7.930637546784019,4.654203264063709,9.670666082969735,38.21180898401799,0.9475965943342989,0.9558093392474795,0.0,0.30749088639206706,0.8204317476677851,33.527638190954775
0.6222717083929596,1.398864369894843,8.283083341211299,7.931859490998039,4.654802004757996,9.672271669262667,38.23413778993313,0.9457754419426191,0.9558093396911584,0.0,0.31005242943127054,0.8198023558715453,33.768844221105525
0.6222717081836036,1.3989230964290678,8.283576297012722,7.933038121670232,4.655372942764448,9.673819170521643,38.25571190230309,0.9439976916445582,0.9558093400834455,0.0,0.31261369932415856,0.8191721315556865,34.01005025125628
0.6222717079759292,1.3989790571724128,8.28405173594954,7.934174973256359,4.655917362702365,9.675310700171986,38.27655613559994,0.9422623087365269,0.955809340416014,0.0,0.31517463204540147,0.8185410832119204,34.25125628140703
0.6222717077823364,1.399032382805595,8.284510281267607,7.935271526241345,4.656436490953714,9.676748294729004,38.29669452796873,0.9405682831341223,0.9558093406813574,0.0,0.31773516393137546,0.8179092193806812,34.49246231155779
0.6222717075979174,1.3990831967818578,8.284952532028191,7.9363292040350695,4.656931489475149,9.678133908636413,38.316150327352425,0.938914629800519,0.9558093408969978,0.0,0.32029523170715757,0.8172765486504843,34.733668341708544
0.6222717074291829,1.3991316175126505,8.28537906749528,7.937349383287689,4.657403473256791,9.679469430552615,38.33494607400408,0.9373003864591943,0.9558093410671469,0.0,0.32285477241542143,0.8166430796579474,34.97487437185929
0.6222717072847395,1.3991777581268185,8.285790446919203,7.938333393349271,4.657853508633468,9.680756682281062,38.35310360538808,0.9357246134996045,0.9558093411952711,0.0,0.32541372342467123,0.8160088210872659,35.21608040201005
0.6222717071607663,1.3992217255616746,8.28618720797351,7.939282512696495,4.658282606384929,9.681997412889999,38.370644037145084,0.9341863945235275,0.9558093412878038,0.0,0.32797202245975243,0.8153737816694638,35.4572864321608
0.6222717070552456,1.3992636221334633,8.28656987006126,7.9401979765500945,4.658691734282986,9.68319331064274,38.38758782882741,0.9326848345718249,0.9558093413528528,0.0,0.3305296075503409,0.8147379701823503,35.698492462311556
0.6222717069673613,1.3993035458016325,8.286938935051701,7.941080978594608,4.659081819397271,9.684346005543603,38.403954804839586,0.9312190595751495,0.9558093414002753,0.0,0.3330864170226641,0.8141013954501,35.93969849246231
0.6222717068966237,1.3993415890497323,8.287294885218463,7.94193266636054,4.65945373952442,9.685457061856672,38.41976412513707,0.9297882171440871,0.9558093414318857,0.0,0.33564238953759273,0.8134640663422709,36.18090452261306
0.6222717068405357,1.399377840269216,8.287638186249872,7.9427541480845045,4.65980833430117,9.686527988777815,38.43503434715595,0.9283914749307605,0.9558093414506138,0.0,0.3381974640447655,0.8128259917738612,36.42211055276382
0.6222717067931565,1.3994123843546733,8.287969288659246,7.943546495950546,4.660146410114654,9.687560245384777,38.449783458925765,0.9270280197567179,0.9558093414634472,0.0,0.3407515797631837,0.8121871807050343,36.66331658291457
0.6222717067506817,1.3994453018684323,8.288288626249837,7.944310742667147,4.660468733675972,9.688555235089298,38.464028857686316,0.9256970581680277,0.9558093414735053,0.0,0.3433046762104959,0.8115476421401673,36.904522613065325
0.6222717067170421,1.3994766685165485,8.288596615175289,7.945047879342642,4.660776027909855,9.689514302182298,38.477787337323576,0.9243978167324334,0.9558093414809283,0.0,0.34585669322274054,0.8109073851269967,37.14572864321608
0.6222717066872827,1.399506558003219,8.28889366012197,7.945758869654122,4.661068995169118,9.690438753871003,38.49107521561221,0.9231295387736308,0.9558093414858715,0.0,0.34840757085524987,0.8102664187575458,37.38693467336683
0.6222717066605086,1.3995350402855968,8.289180150815303,7.946444641900669,4.661348303314439,9.691329847694657,38.50390827246292,0.9218914859329492,0.9558093414857783,0.0,0.3509572494448819,0.8096247521666481,37.62814070351759
0.6222717066354051,1.3995621808598286,8.289456460579762,7.9471060856262685,4.661614579780947,9.692188786199463,38.51630172240714,0.9206829387944733,0.9558093414862024,0.0,0.3535056696388469,0.8089823945309935,37.86934673366834
0.6222717066128055,1.3995880431450842,8.289722951704862,7.947744064108844,4.66186843150217,9.693016736187907,38.52827033469063,0.9195031938948185,0.9558093414848547,0.0,0.3560527723079713,0.8083393550698345,38.11055276381909
0.6222717065948498,1.3996126876867006,8.28997997386405,7.948359410696404,4.6621104384048255,9.69381482291442,38.539828404692585,0.9183515643933247,0.9558093414787932,0.0,0.35859849857763565,0.8076956430439929,38.35175879396985
0.6222717065813773,1.3996361717694834,8.290227863370767,7.948952927075881,4.662341150217913,9.694584127322308,38.55098974103092,0.9172273803343622,0.955809341468227,0.0,0.36114278984458686,0.8070512677550643,38.5929648241206
0.622271706568981,1.3996585495700924,8.290466943649959,7.94952538437705,4.662561087821725,9.695325687649644,38.561767680128575,0.9161299882476326,0.955809341456661,0.0,0.3636855877731261,0.8064062385449238,38.834170854271356
0.6222717065610103,1.3996798735893852,8.29069752868021,7.9500775312247836,4.6627707555113656,9.696040511682012,38.57217517101586,0.9150587490840218,0.9558093414429221,0.0,0.3662268342408206,0.8057605647959847,39.075376884422106
0.6222717065585878,1.3997001936636566,8.290919920842516,7.950610088716432,4.66297063266003,9.696729568952772,38.58222472884426,0.9140130392712429,0.955809341428438,0.0,0.3687664713792161,0.8051142559300416,39.31658291457286
0.6222717065583424,1.3997195564253477,8.29113440967498,7.951123747566116,4.663161169126824,9.69739378635446,38.591928406172926,0.9129922513190583,0.9558093414117932,0.0,0.37130444159862225,0.8044673214072359,39.55778894472362
0.6222717065609344,1.399738007312344,8.291341276897079,7.951619179762668,4.663342802579549,9.698034065756218,38.601297921476835,0.9119957907694151,0.9558093413957316,0.0,0.37384068750796834,0.8038197707269156,39.79899497487437
0.6222717065650338,1.399755589429427,8.291540793740651,7.952097032400514,4.663515948780002,9.698651274559568,38.61034459598024,0.9110230776120393,0.9558093413825547,0.0,0.3763751519636103,0.8031716134262088,40.040201005025125
0.6222717065706563,1.3997723434902762,8.291733220884227,7.952557927559274,4.663681001144631,9.699246245462453,38.6190793545716,0.910073546206404,0.9558093413714351,0.0,0.3789077780742712,0.8025228590793061,40.281407035175874
0.6222717065774966,1.399788308338404,8.291918809868243,7.953002465586416,4.663838335287804,9.699819781342958,38.627512764985866,0.9091466443134406,0.9558093413615036,0.0,0.38143850918156463,0.8018735172972972,40.52261306532663
0.6222717065835195,1.3998035214048108,8.29209780435088,7.9534312280126365,4.6639883130208455,9.700372659588822,38.635655072917814,0.9082418322219488,0.9558093413544407,0.0,0.38396728884316084,0.8012235977279519,40.76381909547739
0.6222717065877459,1.3998180181602118,8.292270438822726,7.953844774603104,4.664131277688618,9.700905627584996,38.64351617191456,0.9073585833933984,0.9558093413503504,0.0,0.3864940608580945,0.8005731100546055,41.00502512562814
0.622271706592467,1.3998318317912666,8.292436937861236,7.954243641630507,4.664267551391395,9.701419400064365,38.65110558611241,0.9064963848087844,0.9558093413484139,0.0,0.3890187692831495,0.799922063995204,41.246231155778894
0.6222717065958816,1.3998449948409848,8.292597520450052,7.954628351926904,4.6643974492996145,9.701914674138793,38.65843258681522,0.9056547341954365,0.9558093413481538,0.0,0.39154135836514187,0.7992704693032507,41.48743718592964
0.6222717065978177,1.3998575381313947,8.29275239730238,7.954999408676568,4.664521270338456,9.702392119915608,38.66550612465452,0.9048331415524239,0.9558093413483515,0.0,0.3940617725893573,0.7986183357661395,41.7286432160804
0.6222717065983305,1.399869490780225,8.292901770967813,7.955357295657488,4.664639297332682,9.702852380819449,38.6723348339197,0.9040311289912966,0.9558093413487836,0.0,0.39657995668178414,0.7979656732045197,41.969849246231156
0.6222717065977463,1.3998808801661,8.293045835827744,7.955702477237014,4.664751796737346,9.703296073530717,38.67892703472794,0.9032482306287645,0.9558093413507043,0.0,0.3990958556131905,0.7973124914716244,42.211055276381906
0.6222717065966256,1.399891733207194,8.293184781581928,7.9560354065492,4.664859029963462,9.703723800135577,38.685290831270365,0.9024839902481913,0.9558093413521591,0.0,0.4016094145452032,0.7966588004539332,42.45226130653266
0.6222717065958657,1.399902075362603,8.293318790682065,7.956356519486657,4.664961244600256,9.704136139103479,38.69143404348057,0.9017379628295318,0.9558093413522604,0.0,0.40412057887694347,0.796004610069522,42.69346733668341
0.6222717065949956,1.3999119304407188,8.293448037832526,7.956666233528708,4.665058672689416,9.704533643530453,38.69736419335302,0.9010097148067803,0.955809341351477,0.0,0.4066292942570259,0.7953499302671623,42.93467336683417
0.6222717065937409,1.399921321197914,8.293572691738655,7.956964951852252,4.6651515361120675,9.704916847177678,38.70308855733779,0.9002988227972489,0.955809341350343,0.0,0.40913550655877723,0.7946947710263552,43.175879396984925
0.6222717065931269,1.3999302697820626,8.29369291642171,7.957253066424852,4.6652400505866,9.705286269003663,38.70861420620814,0.8996048726208651,0.9558093413485583,0.0,0.4116391618625759,0.7940391423571886,43.417085427135675
0.6222717065936021,1.3999387971779893,8.29380886974639,7.957530954551219,4.665324420731174,9.705642408007291,38.71394796434993,0.8989274601849452,0.9558093413466177,0.0,0.41414020648398536,0.7933830542990609,43.65829145728643
0.6222717065945591,1.3999469228511012,8.29392070237854,7.957798976436967,4.665404836827073,9.70598573964852,38.71909637847732,0.8982661921558098,0.9558093413438921,0.0,0.41663858699403783,0.7927265169194808,43.89949748743718
0.6222717065959686,1.3999546657848725,8.294028560948636,7.958057482612615,4.665481484247,9.706316726679557,38.72406581556909,0.8976206836259231,0.9558093413409124,0.0,0.41913425017240735,0.7920695403148287,44.14070351758794
0.6222717065976804,1.399962044146935,8.29413258711622,7.9583068117454605,4.665554540445673,9.706635815907068,38.72886243574186,0.8969905586874463,0.95580934133848,0.0,0.4216271430262191,0.7914121346092341,44.381909547738694
0.6222717065992177,1.3999690752240894,8.294232917436496,7.958547290332613,4.66562417438868,9.706943437708706,38.73349218956326,0.8963754504380939,0.9558093413373814,0.0,0.42411721279599995,0.7907543099538223,44.62311557788944
0.6222717066014658,1.3999757749599082,8.294329681926571,7.958779229345768,4.665690542327969,9.707240001151758,38.73796077317216,0.8957750019870263,0.955809341335963,0.0,0.42660440698146157,0.7900960765252493,44.8643216080402
0.6222717066035697,1.399982159177725,8.294423008004657,7.959002933472075,4.665753799009082,9.707525907358217,38.74227375483224,0.8951888634186207,0.9558093413352465,0.0,0.4290886732841981,0.7894374445270399,45.10552763819095
0.6222717066051076,1.3999882428026902,8.294513018068354,7.959218695442682,4.6658140905653,9.707801541258638,38.74643649890842,0.8946166935298854,0.9558093413352862,0.0,0.43156995964889494,0.7887784241876254,45.346733668341706
0.6222717066057983,1.399994040033223,8.294599830084493,7.9594267974187325,4.665871556097848,9.708067273577434,38.7504541855865,0.8940581593151657,0.9558093413360417,0.0,0.4340482142577922,0.7881190257599374,45.58793969849246
0.6222717066065053,1.399999564062523,8.294683556728689,7.959627508969267,4.665926325128769,9.708323457890284,38.75433178390488,0.893512936561441,0.9558093413373709,0.0,0.4365233855472892,0.7874592595202281,45.82914572864321
0.6222717066067078,1.400004827944751,8.294764308256203,7.959821093834522,4.665978525573483,9.708570440361742,38.75807414594549,0.8929807075402181,0.9558093413389748,0.0,0.43899542216824616,0.7867991357689206,46.07035175879397
0.6222717066064636,1.4000098440061184,8.294842190629632,7.960007805521328,4.66602827834084,9.708808553363875,38.761685947008374,0.8924611623902015,0.9558093413404026,0.0,0.4414642730178569,0.7861386648288791,46.311557788944725
0.6222717066057849,1.4000146238552706,8.294917305586422,7.96018788745929,4.666075697431038,9.709038115684477,38.765171688402766,0.8919539990066623,0.9558093413416926,0.0,0.4439298872419691,0.7854778570447319,46.552763819095475
0.6222717066046263,1.4000191783858167,8.294989750691704,7.960361573127649,4.666120889969119,9.709259432687473,38.768535700058,0.891458922929373,0.9558093413434858,0.0,0.4463922142378512,0.7848167227821883,46.79396984924623
0.6222717066033335,1.400023518408181,8.295059621487216,7.960529091138977,4.666163962053846,9.709472803605419,38.771782212412,0.8909756455468754,0.9558093413449636,0.0,0.44885120362624986,0.784155272428505,47.03517587939698
0.6222717066022356,1.4000276541126582,8.295127009747299,7.960690661116894,4.666205013806082,9.70967851558611,38.7749152996354,0.890503885427706,0.9558093413458283,0.0,0.4513068052804816,0.7834935163908179,47.27638190954774
0.6222717066017178,1.400031595244569,8.295192004104509,7.960846495177301,4.666244140996305,9.709876845802786,38.77793890112553,0.8900433677499238,0.955809341345796,0.0,0.4537589693207704,0.7828314650957727,47.517587939698494
0.622271706601511,1.4000353508477597,8.29525468921297,7.960996795950488,4.666281432670065,9.710068058598994,38.78085679414177,0.8895938249237392,0.9558093413453073,0.0,0.45620764612959447,0.7821691289883534,47.75879396984924
0.6222717066015434,1.4000389296403004,8.295315147075177,7.96114175972223,4.666316974646584,9.710252409971089,38.783672639193725,0.8891549954326294,0.9558093413446995,0.0,0.45865278633631346,0.7815065185318993,48.0
